,ts,label
0,2.1,0.0
1,2.135,0.0
2,2.19,0.0
3,2.285,0.0
4,2.44,0.0
5,2.62,0.0
6,2.805,0.0
7,3.045,0.0
8,3.365,0.0
9,3.695,0.0
10,3.97,0.0
11,4.24,0.0
12,4.53,0.0
13,4.8,0.0
14,5.025,0.0
15,5.215,0.0
16,5.4,0.0
17,5.575,0.0
18,5.715,0.0
19,5.795,0.0
20,5.865,0.0
21,5.925,0.0
22,5.98,0.0
23,6.02,0.0
24,6.06,0.0
25,6.08,0.0
26,6.145,0.0
27,6.18,0.0
28,6.22,0.0
29,6.275,0.0
30,6.32,0.0
31,6.355,0.0
32,6.38,0.0
33,6.45,0.0
34,6.49,0.0
35,6.53,0.0
36,6.575,0.0
37,6.645,0.0
38,6.7,0.0
39,6.735,0.0
40,6.78,0.0
41,6.835,0.0
42,6.885,0.0
43,6.92,0.0
44,6.945,0.0
45,6.985,0.0
46,7.01,0.0
47,7.035,0.0
48,7.05,0.0
49,7.065,0.0
50,7.07,0.0
51,7.085,0.0
52,7.065,0.0
53,7.045,0.0
54,7.03,0.0
55,6.995,0.0
56,6.94,0.0
57,6.885,0.0
58,6.835,0.0
59,6.775,0.0
60,6.69,0.0
61,6.6,0.0
62,6.535,0.0
63,6.455,0.0
64,6.36,0.0
65,6.27,0.0
66,6.195,0.0
67,6.115,0.0
68,6.03,0.0
69,5.945,0.0
70,5.88,0.0
71,5.815,0.0
72,5.75,0.0
73,5.68,0.0
74,5.625,0.0
75,5.61,0.0
76,5.54,0.0
77,5.49,0.0
78,5.45,0.0
79,5.425,0.0
80,5.385,0.0
81,5.34,0.0
82,5.31,0.0
83,5.3,0.0
84,5.29,0.0
85,5.265,0.0
86,5.235,0.0
87,5.23,0.0
88,5.225,0.0
89,5.205,0.0
90,5.195,0.0
91,5.18,0.0
92,5.19,0.0
93,5.175,0.0
94,5.155,0.0
95,5.145,0.0
96,5.17,0.0
97,5.165,0.0
98,5.15,0.0
99,5.15,0.0
100,5.15,0.0
101,5.145,0.0
102,5.145,0.0
103,5.14,0.0
104,5.15,0.0
105,5.145,0.0
106,5.145,0.0
107,5.13,0.0
108,5.15,0.0
109,5.155,0.0
110,5.15,0.0
111,5.14,0.0
112,5.16,0.0
113,5.155,0.0
114,5.155,0.0
115,5.14,0.0
116,5.14,0.0
117,5.15,0.0
118,5.15,0.0
119,5.14,0.0
120,5.13,0.0
121,5.14,0.0
122,5.145,0.0
123,5.115,0.0
124,5.12,0.0
125,5.125,0.0
126,5.12,0.0
127,5.095,0.0
128,5.095,0.0
129,5.095,0.0
130,5.105,0.0
131,5.085,0.0
132,5.08,0.0
133,5.085,0.0
134,5.085,0.0
135,5.065,0.0
136,5.05,0.0
137,5.065,0.0
138,5.07,0.0
139,5.055,0.0
140,5.03,0.0
141,5.035,0.0
142,5.04,0.0
143,5.03,0.0
144,5.01,0.0
145,5.015,0.0
146,5.02,0.0
147,5.015,0.0
148,5.015,0.0
149,5.0,0.0
150,5.005,0.0
151,5.02,0.0
152,5.01,0.0
153,4.98,0.0
154,5.005,0.0
155,5.0,0.0
156,5.0,0.0
157,4.99,0.0
158,5.0,0.0
159,5.01,0.0
160,5.02,0.0
161,5.01,0.0
162,5.03,0.0
163,5.035,0.0
164,5.025,0.0
165,5.02,0.0
166,5.04,0.0
167,5.04,0.0
168,5.04,0.0
169,5.025,0.0
170,5.02,0.0
171,5.015,0.0
172,4.99,0.0
173,4.985,0.0
174,4.96,0.0
175,4.965,0.0
176,4.965,0.0
177,4.94,0.0
178,4.935,0.0
179,4.935,0.0
180,4.93,0.0
181,4.93,0.0
182,4.93,0.0
183,5.02,0.0
184,5.275,0.0
185,5.805,0.0
186,5.94,0.0
187,5.585,0.0
188,5.39,0.0
189,5.32,0.0
190,5.25,0.0
191,5.21,0.0
192,5.135,0.0
193,4.975,0.0
194,4.715,0.0
195,4.39,0.0
196,4.055,0.0
197,3.69,0.0
198,3.325,0.0
199,3.055,0.0
200,2.99,0.0
201,2.74,0.0
202,2.615,0.0
203,2.47,0.0
204,2.35,0.0
205,2.26,0.0
206,2.205,0.0
207,2.15,0.0
208,2.105,0.0
209,2.08,0.0
210,2.06,0.0
211,2.05,0.0
212,2.06,0.0
213,2.075,0.0
214,2.085,0.0
215,2.13,0.0
216,2.225,0.0
217,2.37,0.0
218,2.53,0.0
219,2.715,0.0
220,2.975,0.0
221,3.315,0.0
222,3.65,0.0
223,3.96,0.0
224,4.275,0.0
225,4.37,0.0
226,4.825,0.0
227,5.04,0.0
228,5.245,0.0
229,5.435,0.0
230,5.59,0.0
231,5.7,0.0
232,5.765,0.0
233,5.835,0.0
234,5.9,0.0
235,5.94,0.0
236,5.975,0.0
237,6.04,0.0
238,6.085,0.0
239,6.125,0.0
240,6.16,0.0
241,6.22,0.0
242,6.26,0.0
243,6.31,0.0
244,6.335,0.0
245,6.385,0.0
246,6.45,0.0
247,6.495,0.0
248,6.51,0.0
249,6.56,0.0
250,6.58,0.0
251,6.68,0.0
252,6.715,0.0
253,6.75,0.0
254,6.815,0.0
255,6.855,0.0
256,6.89,0.0
257,6.915,0.0
258,6.96,0.0
259,6.99,0.0
260,7.01,0.0
261,7.015,0.0
262,7.035,0.0
263,7.045,0.0
264,7.05,0.0
265,7.015,0.0
266,6.99,0.0
267,6.97,0.0
268,6.92,0.0
269,6.86,0.0
270,6.8,0.0
271,6.75,0.0
272,6.67,0.0
273,6.575,0.0
274,6.5,0.0
275,6.475,0.0
276,6.335,0.0
277,6.25,0.0
278,6.155,0.0
279,6.09,0.0
280,6.01,0.0
281,5.93,0.0
282,5.84,0.0
283,5.785,0.0
284,5.725,0.0
285,5.655,0.0
286,5.585,0.0
287,5.535,0.0
288,5.5,0.0
289,5.44,0.0
290,5.38,0.0
291,5.365,0.0
292,5.33,0.0
293,5.3,0.0
294,5.25,0.0
295,5.24,0.0
296,5.23,0.0
297,5.215,0.0
298,5.185,0.0
299,5.175,0.0
300,5.17,0.0
301,5.155,0.0
302,5.14,0.0
303,5.125,0.0
304,5.12,0.0
305,5.12,0.0
306,5.115,0.0
307,5.095,0.0
308,5.11,0.0
309,5.11,0.0
310,5.09,0.0
311,5.085,0.0
312,5.09,0.0
313,5.095,0.0
314,5.085,0.0
315,5.08,0.0
316,5.095,0.0
317,5.095,0.0
318,5.1,0.0
319,5.08,0.0
320,5.09,0.0
321,5.11,0.0
322,5.1,0.0
323,5.09,0.0
324,5.09,0.0
325,5.1,0.0
326,5.1,0.0
327,5.08,0.0
328,5.09,0.0
329,5.11,0.0
330,5.095,0.0
331,5.085,0.0
332,5.08,0.0
333,5.085,0.0
334,5.095,0.0
335,5.08,0.0
336,5.07,0.0
337,5.075,0.0
338,5.075,0.0
339,5.08,0.0
340,5.05,0.0
341,5.055,0.0
342,5.06,0.0
343,5.05,0.0
344,5.04,0.0
345,5.035,0.0
346,5.04,0.0
347,5.04,0.0
348,5.025,0.0
349,5.01,0.0
350,5.005,0.0
351,5.015,0.0
352,5.0,0.0
353,4.995,0.0
354,4.995,0.0
355,4.99,0.0
356,4.985,0.0
357,4.965,0.0
358,4.98,0.0
359,4.985,0.0
360,4.98,0.0
361,4.965,0.0
362,4.97,0.0
363,4.97,0.0
364,4.96,0.0
365,4.955,0.0
366,4.955,0.0
367,4.97,0.0
368,4.96,0.0
369,4.945,0.0
370,4.94,0.0
371,4.965,0.0
372,4.96,0.0
373,4.945,0.0
374,4.94,0.0
375,4.945,0.0
376,4.94,0.0
377,4.935,0.0
378,4.92,0.0
379,4.93,0.0
380,4.94,0.0
381,4.93,0.0
382,4.925,0.0
383,4.94,0.0
384,4.94,0.0
385,4.935,0.0
386,4.935,0.0
387,4.945,0.0
388,4.955,0.0
389,4.965,0.0
390,4.965,0.0
391,4.98,0.0
392,4.985,0.0
393,4.97,0.0
394,4.965,0.0
395,4.955,0.0
396,5.005,0.0
397,5.18,0.0
398,5.625,0.0
399,5.85,0.0
400,5.815,0.0
401,5.335,0.0
402,5.25,0.0
403,5.165,0.0
404,5.08,0.0
405,4.935,0.0
406,4.73,0.0
407,4.495,0.0
408,4.205,0.0
409,3.89,0.0
410,3.62,0.0
411,3.385,0.0
412,3.175,0.0
413,2.92,0.0
414,2.64,0.0
415,2.455,0.0
416,2.335,0.0
417,2.23,0.0
418,2.135,0.0
419,2.08,0.0
420,2.055,0.0
421,2.055,0.0
422,2.035,0.0
423,2.025,0.0
424,2.035,0.0
425,2.04,0.0
426,2.085,0.0
427,2.14,0.0
428,2.28,0.0
429,2.44,0.0
430,2.65,0.0
431,2.89,0.0
432,3.19,0.0
433,3.505,0.0
434,3.825,0.0
435,4.135,0.0
436,4.415,0.0
437,4.685,0.0
438,4.925,0.0
439,5.145,0.0
440,5.34,0.0
441,5.515,0.0
442,5.63,0.0
443,5.7,0.0
444,5.755,0.0
445,5.815,0.0
446,5.87,0.0
447,5.91,0.0
448,5.94,0.0
449,5.98,0.0
450,6.0,0.0
451,6.055,0.0
452,6.095,0.0
453,6.115,0.0
454,6.165,0.0
455,6.205,0.0
456,6.235,0.0
457,6.265,0.0
458,6.32,0.0
459,6.35,0.0
460,6.385,0.0
461,6.42,0.0
462,6.47,0.0
463,6.525,0.0
464,6.55,0.0
465,6.585,0.0
466,6.625,0.0
467,6.67,0.0
468,6.69,0.0
469,6.71,0.0
470,6.745,0.0
471,6.77,0.0
472,6.79,0.0
473,6.805,0.0
474,6.805,0.0
475,6.81,0.0
476,6.82,0.0
477,6.79,0.0
478,6.775,0.0
479,6.755,0.0
480,6.715,0.0
481,6.66,0.0
482,6.6,0.0
483,6.56,0.0
484,6.5,0.0
485,6.41,0.0
486,6.335,0.0
487,6.26,0.0
488,6.185,0.0
489,6.095,0.0
490,6.0,0.0
491,5.93,0.0
492,5.855,0.0
493,5.77,0.0
494,5.695,0.0
495,5.63,0.0
496,5.58,0.0
497,5.52,0.0
498,5.455,0.0
499,5.415,0.0
500,5.41,0.0
501,5.35,0.0
502,5.3,0.0
503,5.275,0.0
504,5.265,0.0
505,5.24,0.0
506,5.205,0.0
507,5.185,0.0
508,5.185,0.0
509,5.17,0.0
510,5.155,0.0
511,5.14,0.0
512,5.14,0.0
513,5.145,0.0
514,5.14,0.0
515,5.12,0.0
516,5.115,0.0
517,5.13,0.0
518,5.125,0.0
519,5.1,0.0
520,5.1,0.0
521,5.125,0.0
522,5.125,0.0
523,5.12,0.0
524,5.12,0.0
525,5.13,0.0
526,5.135,0.0
527,5.115,0.0
528,5.12,0.0
529,5.13,0.0
530,5.135,0.0
531,5.125,0.0
532,5.105,0.0
533,5.125,0.0
534,5.125,0.0
535,5.12,0.0
536,5.11,0.0
537,5.12,0.0
538,5.13,0.0
539,5.11,0.0
540,5.1,0.0
541,5.105,0.0
542,5.12,0.0
543,5.11,0.0
544,5.085,0.0
545,5.085,0.0
546,5.095,0.0
547,5.085,0.0
548,5.075,0.0
549,5.07,0.0
550,5.075,0.0
551,5.075,0.0
552,5.06,0.0
553,5.05,0.0
554,5.06,0.0
555,5.055,0.0
556,5.05,0.0
557,5.035,0.0
558,5.04,0.0
559,5.045,0.0
560,5.025,0.0
561,5.01,0.0
562,5.02,0.0
563,5.02,0.0
564,5.01,0.0
565,5.0,0.0
566,5.005,0.0
567,5.005,0.0
568,5.01,0.0
569,4.985,0.0
570,4.99,0.0
571,4.995,0.0
572,4.99,0.0
573,4.98,0.0
574,4.975,0.0
575,4.975,0.0
576,4.985,0.0
577,4.98,0.0
578,4.97,0.0
579,4.99,0.0
580,4.975,0.0
581,4.965,0.0
582,4.96,0.0
583,4.97,0.0
584,4.97,0.0
585,4.96,0.0
586,4.95,0.0
587,4.955,0.0
588,4.97,0.0
589,4.97,0.0
590,4.955,0.0
591,4.96,0.0
592,4.965,0.0
593,4.96,0.0
594,4.95,0.0
595,4.95,0.0
596,4.96,0.0
597,4.96,0.0
598,4.94,0.0
599,4.94,0.0
600,4.945,0.0
601,4.965,0.0
602,4.96,0.0
603,4.95,0.0
604,4.98,0.0
605,4.985,0.0
606,5.055,0.0
607,5.335,0.0
608,5.825,0.0
609,5.815,0.0
610,5.485,0.0
611,5.36,0.0
612,5.33,0.0
613,5.285,0.0
614,5.24,0.0
615,5.135,0.0
616,4.98,0.0
617,4.735,0.0
618,4.405,0.0
619,4.07,0.0
620,3.715,0.0
621,3.335,0.0
622,3.01,0.0
623,2.745,0.0
624,2.555,0.0
625,2.51,0.0
626,2.3,0.0
627,2.17,0.0
628,2.105,0.0
629,2.085,0.0
630,2.07,0.0
631,2.045,0.0
632,2.03,0.0
633,2.05,0.0
634,2.05,0.0
635,2.045,0.0
636,2.05,0.0
637,2.09,0.0
638,2.14,0.0
639,2.22,0.0
640,2.355,0.0
641,2.535,0.0
642,2.765,0.0
643,3.045,0.0
644,3.36,0.0
645,3.69,0.0
646,4.005,0.0
647,4.32,0.0
648,4.605,0.0
649,4.865,0.0
650,4.94,0.0
651,5.315,0.0
652,5.51,0.0
653,5.65,0.0
654,5.75,0.0
655,5.81,0.0
656,5.85,0.0
657,5.9,0.0
658,5.955,0.0
659,5.995,0.0
660,6.025,0.0
661,6.06,0.0
662,6.09,0.0
663,6.13,0.0
664,6.16,0.0
665,6.18,0.0
666,6.23,0.0
667,6.255,0.0
668,6.28,0.0
669,6.295,0.0
670,6.335,0.0
671,6.38,0.0
672,6.41,0.0
673,6.435,0.0
674,6.47,0.0
675,6.485,0.0
676,6.555,0.0
677,6.575,0.0
678,6.62,0.0
679,6.67,0.0
680,6.72,0.0
681,6.745,0.0
682,6.775,0.0
683,6.815,0.0
684,6.845,0.0
685,6.865,0.0
686,6.89,0.0
687,6.91,0.0
688,6.935,0.0
689,6.935,0.0
690,6.92,0.0
691,6.92,0.0
692,6.91,0.0
693,6.87,0.0
694,6.83,0.0
695,6.775,0.0
696,6.73,0.0
697,6.66,0.0
698,6.57,0.0
699,6.495,0.0
700,6.465,0.0
701,6.325,0.0
702,6.225,0.0
703,6.14,0.0
704,6.065,0.0
705,5.985,0.0
706,5.895,0.0
707,5.81,0.0
708,5.75,0.0
709,5.695,0.0
710,5.615,0.0
711,5.545,0.0
712,5.51,0.0
713,5.47,0.0
714,5.43,0.0
715,5.39,0.0
716,5.355,0.0
717,5.35,0.0
718,5.32,0.0
719,5.285,0.0
720,5.27,0.0
721,5.275,0.0
722,5.255,0.0
723,5.24,0.0
724,5.24,0.0
725,5.245,0.0
726,5.24,0.0
727,5.225,0.0
728,5.225,0.0
729,5.235,0.0
730,5.215,0.0
731,5.22,0.0
732,5.22,0.0
733,5.225,0.0
734,5.23,0.0
735,5.22,0.0
736,5.215,0.0
737,5.22,0.0
738,5.23,0.0
739,5.23,0.0
740,5.215,0.0
741,5.225,0.0
742,5.225,0.0
743,5.22,0.0
744,5.2,0.0
745,5.205,0.0
746,5.215,0.0
747,5.22,0.0
748,5.2,0.0
749,5.19,0.0
750,5.19,0.0
751,5.195,0.0
752,5.17,0.0
753,5.185,0.0
754,5.175,0.0
755,5.175,0.0
756,5.155,0.0
757,5.145,0.0
758,5.145,0.0
759,5.155,0.0
760,5.14,0.0
761,5.12,0.0
762,5.13,0.0
763,5.135,0.0
764,5.12,0.0
765,5.105,0.0
766,5.105,0.0
767,5.105,0.0
768,5.085,0.0
769,5.08,0.0
770,5.07,0.0
771,5.08,0.0
772,5.075,0.0
773,5.065,0.0
774,5.055,0.0
775,5.06,0.0
776,5.065,0.0
777,5.055,0.0
778,5.03,0.0
779,5.035,0.0
780,5.045,0.0
781,5.03,0.0
782,5.02,0.0
783,5.035,0.0
784,5.03,0.0
785,5.02,0.0
786,5.005,0.0
787,5.015,0.0
788,5.02,0.0
789,5.005,0.0
790,5.005,0.0
791,5.01,0.0
792,5.015,0.0
793,5.01,0.0
794,4.995,0.0
795,4.99,0.0
796,5.0,0.0
797,5.0,0.0
798,4.99,0.0
799,4.98,0.0
800,4.985,0.0
801,4.99,0.0
802,4.975,0.0
803,4.98,0.0
804,4.995,0.0
805,4.99,0.0
806,4.975,0.0
807,4.975,0.0
808,4.98,0.0
809,4.99,0.0
810,4.97,0.0
811,4.965,0.0
812,4.985,0.0
813,4.99,0.0
814,5.0,0.0
815,5.03,0.0
816,5.205,0.0
817,5.73,0.0
818,5.9,0.0
819,5.535,0.0
820,5.36,0.0
821,5.3,0.0
822,5.225,0.0
823,5.095,0.0
824,4.915,0.0
825,4.845,0.0
826,4.395,0.0
827,4.06,0.0
828,3.75,0.0
829,3.51,0.0
830,3.275,0.0
831,3.02,0.0
832,2.74,0.0
833,2.54,0.0
834,2.39,0.0
835,2.275,0.0
836,2.175,0.0
837,2.13,0.0
838,2.115,0.0
839,2.075,0.0
840,2.065,0.0
841,2.07,0.0
842,2.07,0.0
843,2.08,0.0
844,2.08,0.0
845,2.12,0.0
846,2.185,0.0
847,2.28,0.0
848,2.435,0.0
849,2.66,0.0
850,2.735,0.0
851,3.285,0.0
852,3.645,0.0
853,4.015,0.0
854,4.36,0.0
855,4.66,0.0
856,4.93,0.0
857,5.175,0.0
858,5.42,0.0
859,5.63,0.0
860,5.76,0.0
861,5.835,0.0
862,5.91,0.0
863,5.96,0.0
864,5.985,0.0
865,6.02,0.0
866,6.07,0.0
867,6.1,0.0
868,6.11,0.0
869,6.13,0.0
870,6.15,0.0
871,6.19,0.0
872,6.205,0.0
873,6.22,0.0
874,6.255,0.0
875,6.275,0.0
876,6.345,0.0
877,6.375,0.0
878,6.41,0.0
879,6.46,0.0
880,6.49,0.0
881,6.515,0.0
882,6.555,0.0
883,6.6,0.0
884,6.63,0.0
885,6.66,0.0
886,6.69,0.0
887,6.73,0.0
888,6.765,0.0
889,6.78,0.0
890,6.8,0.0
891,6.83,0.0
892,6.86,0.0
893,6.865,0.0
894,6.88,0.0
895,6.875,0.0
896,6.89,0.0
897,6.875,0.0
898,6.85,0.0
899,6.825,0.0
900,6.81,0.0
901,6.745,0.0
902,6.675,0.0
903,6.61,0.0
904,6.55,0.0
905,6.48,0.0
906,6.39,0.0
907,6.31,0.0
908,6.23,0.0
909,6.145,0.0
910,6.045,0.0
911,5.955,0.0
912,5.885,0.0
913,5.815,0.0
914,5.74,0.0
915,5.665,0.0
916,5.61,0.0
917,5.57,0.0
918,5.505,0.0
919,5.45,0.0
920,5.415,0.0
921,5.385,0.0
922,5.35,0.0
923,5.325,0.0
924,5.295,0.0
925,5.285,0.0
926,5.28,0.0
927,5.255,0.0
928,5.255,0.0
929,5.25,0.0
930,5.24,0.0
931,5.225,0.0
932,5.22,0.0
933,5.225,0.0
934,5.23,0.0
935,5.22,0.0
936,5.205,0.0
937,5.215,0.0
938,5.23,0.0
939,5.205,0.0
940,5.215,0.0
941,5.215,0.0
942,5.22,0.0
943,5.215,0.0
944,5.205,0.0
945,5.2,0.0
946,5.215,0.0
947,5.21,0.0
948,5.205,0.0
949,5.2,0.0
950,5.2,0.0
951,5.185,0.0
952,5.185,0.0
953,5.18,0.0
954,5.19,0.0
955,5.175,0.0
956,5.17,0.0
957,5.155,0.0
958,5.17,0.0
959,5.17,0.0
960,5.15,0.0
961,5.135,0.0
962,5.135,0.0
963,5.125,0.0
964,5.12,0.0
965,5.105,0.0
966,5.11,0.0
967,5.115,0.0
968,5.105,0.0
969,5.085,0.0
970,5.08,0.0
971,5.08,0.0
972,5.07,0.0
973,5.06,0.0
974,5.055,0.0
975,5.055,0.0
976,5.05,0.0
977,5.035,0.0
978,5.04,0.0
979,5.045,0.0
980,5.045,0.0
981,5.025,0.0
982,5.025,0.0
983,5.02,0.0
984,5.02,0.0
985,5.015,0.0
986,5.005,0.0
987,5.02,0.0
988,5.015,0.0
989,4.995,0.0
990,4.995,0.0
991,4.995,0.0
992,5.005,0.0
993,4.995,0.0
994,4.99,0.0
995,4.985,0.0
996,5.0,0.0
997,4.995,0.0
998,4.98,0.0
999,4.98,0.0
1000,4.985,0.0
1001,4.995,0.0
1002,4.98,0.0
1003,4.97,0.0
1004,4.985,0.0
1005,4.985,0.0
1006,4.965,0.0
1007,4.96,0.0
1008,4.975,0.0
1009,4.975,0.0
1010,4.975,0.0
1011,4.965,0.0
1012,4.97,0.0
1013,4.975,0.0
1014,4.97,0.0
1015,4.95,0.0
1016,4.965,0.0
1017,4.975,0.0
1018,4.975,0.0
1019,4.975,0.0
1020,5.035,0.0
1021,5.275,0.0
1022,5.775,0.0
1023,5.905,0.0
1024,5.555,0.0
1025,5.46,0.0
1026,5.305,0.0
1027,5.215,0.0
1028,5.095,0.0
1029,4.925,0.0
1030,4.695,0.0
1031,4.415,0.0
1032,4.08,0.0
1033,3.8,0.0
1034,3.575,0.0
1035,3.33,0.0
1036,3.07,0.0
1037,2.79,0.0
1038,2.585,0.0
1039,2.43,0.0
1040,2.31,0.0
1041,2.22,0.0
1042,2.16,0.0
1043,2.12,0.0
1044,2.085,0.0
1045,2.08,0.0
1046,2.08,0.0
1047,2.07,0.0
1048,2.065,0.0
1049,2.09,0.0
1050,2.1,0.0
1051,2.18,0.0
1052,2.28,0.0
1053,2.46,0.0
1054,2.69,0.0
1055,2.985,0.0
1056,3.3,0.0
1057,3.64,0.0
1058,3.985,0.0
1059,4.285,0.0
1060,4.55,0.0
1061,4.815,0.0
1062,5.06,0.0
1063,5.29,0.0
1064,5.49,0.0
1065,5.63,0.0
1066,5.725,0.0
1067,5.795,0.0
1068,5.85,0.0
1069,5.88,0.0
1070,5.935,0.0
1071,5.985,0.0
1072,6.02,0.0
1073,6.04,0.0
1074,6.075,0.0
1075,6.095,0.0
1076,6.16,0.0
1077,6.19,0.0
1078,6.225,0.0
1079,6.265,0.0
1080,6.295,0.0
1081,6.325,0.0
1082,6.355,0.0
1083,6.41,0.0
1084,6.445,0.0
1085,6.485,0.0
1086,6.505,0.0
1087,6.555,0.0
1088,6.59,0.0
1089,6.61,0.0
1090,6.63,0.0
1091,6.67,0.0
1092,6.695,0.0
1093,6.705,0.0
1094,6.725,0.0
1095,6.745,0.0
1096,6.77,0.0
1097,6.785,0.0
1098,6.78,0.0
1099,6.805,0.0
1100,6.82,0.0
1101,6.84,0.0
1102,6.815,0.0
1103,6.78,0.0
1104,6.77,0.0
1105,6.725,0.0
1106,6.66,0.0
1107,6.605,0.0
1108,6.56,0.0
1109,6.485,0.0
1110,6.405,0.0
1111,6.32,0.0
1112,6.265,0.0
1113,6.18,0.0
1114,6.095,0.0
1115,6.0,0.0
1116,5.915,0.0
1117,5.855,0.0
1118,5.775,0.0
1119,5.69,0.0
1120,5.63,0.0
1121,5.58,0.0
1122,5.515,0.0
1123,5.46,0.0
1124,5.415,0.0
1125,5.41,0.0
1126,5.345,0.0
1127,5.31,0.0
1128,5.295,0.0
1129,5.28,0.0
1130,5.26,0.0
1131,5.235,0.0
1132,5.215,0.0
1133,5.215,0.0
1134,5.215,0.0
1135,5.195,0.0
1136,5.19,0.0
1137,5.2,0.0
1138,5.21,0.0
1139,5.2,0.0
1140,5.185,0.0
1141,5.195,0.0
1142,5.21,0.0
1143,5.2,0.0
1144,5.19,0.0
1145,5.185,0.0
1146,5.205,0.0
1147,5.195,0.0
1148,5.195,0.0
1149,5.19,0.0
1150,5.2,0.0
1151,5.205,0.0
1152,5.2,0.0
1153,5.19,0.0
1154,5.205,0.0
1155,5.195,0.0
1156,5.185,0.0
1157,5.175,0.0
1158,5.195,0.0
1159,5.19,0.0
1160,5.175,0.0
1161,5.16,0.0
1162,5.165,0.0
1163,5.165,0.0
1164,5.155,0.0
1165,5.15,0.0
1166,5.15,0.0
1167,5.16,0.0
1168,5.14,0.0
1169,5.115,0.0
1170,5.125,0.0
1171,5.135,0.0
1172,5.115,0.0
1173,5.09,0.0
1174,5.09,0.0
1175,5.1,0.0
1176,5.105,0.0
1177,5.085,0.0
1178,5.075,0.0
1179,5.085,0.0
1180,5.07,0.0
1181,5.055,0.0
1182,5.05,0.0
1183,5.055,0.0
1184,5.06,0.0
1185,5.05,0.0
1186,5.04,0.0
1187,5.04,0.0
1188,5.055,0.0
1189,5.04,0.0
1190,5.03,0.0
1191,5.03,0.0
1192,5.035,0.0
1193,5.025,0.0
1194,5.005,0.0
1195,5.01,0.0
1196,5.015,0.0
1197,5.025,0.0
1198,5.01,0.0
1199,5.005,0.0
1200,5.005,0.0
1201,5.015,0.0
1202,5.0,0.0
1203,5.005,0.0
1204,5.01,0.0
1205,5.005,0.0
1206,5.0,0.0
1207,4.98,0.0
1208,5.0,0.0
1209,5.005,0.0
1210,4.995,0.0
1211,4.985,0.0
1212,4.985,0.0
1213,4.995,0.0
1214,4.985,0.0
1215,4.97,0.0
1216,4.985,0.0
1217,4.985,0.0
1218,4.995,0.0
1219,4.98,0.0
1220,4.99,0.0
1221,5.03,0.0
1222,5.085,0.0
1223,5.33,0.0
1224,5.835,0.0
1225,5.975,0.0
1226,5.55,0.0
1227,5.39,0.0
1228,5.36,0.0
1229,5.325,0.0
1230,5.275,0.0
1231,5.155,0.0
1232,5.0,0.0
1233,4.73,0.0
1234,4.385,0.0
1235,4.0,0.0
1236,3.6,0.0
1237,3.26,0.0
1238,3.0,0.0
1239,2.76,0.0
1240,2.6,0.0
1241,2.46,0.0
1242,2.31,0.0
1243,2.21,0.0
1244,2.15,0.0
1245,2.12,0.0
1246,2.12,0.0
1247,2.095,0.0
1248,2.085,0.0
1249,2.08,0.0
1250,2.085,0.0
1251,2.11,0.0
1252,2.13,0.0
1253,2.21,0.0
1254,2.35,0.0
1255,2.535,0.0
1256,2.75,0.0
1257,3.03,0.0
1258,3.4,0.0
1259,3.76,0.0
1260,4.07,0.0
1261,4.385,0.0
1262,4.69,0.0
1263,4.93,0.0
1264,5.13,0.0
1265,5.34,0.0
1266,5.55,0.0
1267,5.7,0.0
1268,5.785,0.0
1269,5.84,0.0
1270,5.905,0.0
1271,5.955,0.0
1272,5.995,0.0
1273,6.025,0.0
1274,6.075,0.0
1275,6.095,0.0
1276,6.145,0.0
1277,6.175,0.0
1278,6.205,0.0
1279,6.255,0.0
1280,6.28,0.0
1281,6.305,0.0
1282,6.34,0.0
1283,6.4,0.0
1284,6.43,0.0
1285,6.47,0.0
1286,6.51,0.0
1287,6.56,0.0
1288,6.61,0.0
1289,6.66,0.0
1290,6.68,0.0
1291,6.745,0.0
1292,6.78,0.0
1293,6.81,0.0
1294,6.845,0.0
1295,6.89,0.0
1296,6.94,0.0
1297,6.97,0.0
1298,6.995,0.0
1299,7.005,0.0
1300,7.015,0.0
1301,7.01,0.0
1302,6.985,0.0
1303,6.95,0.0
1304,6.935,0.0
1305,6.885,0.0
1306,6.82,0.0
1307,6.745,0.0
1308,6.68,0.0
1309,6.585,0.0
1310,6.495,0.0
1311,6.4,0.0
1312,6.33,0.0
1313,6.245,0.0
1314,6.17,0.0
1315,6.08,0.0
1316,6.0,0.0
1317,5.92,0.0
1318,5.835,0.0
1319,5.75,0.0
1320,5.675,0.0
1321,5.625,0.0
1322,5.575,0.0
1323,5.51,0.0
1324,5.465,0.0
1325,5.46,0.0
1326,5.405,0.0
1327,5.365,0.0
1328,5.335,0.0
1329,5.325,0.0
1330,5.31,0.0
1331,5.285,0.0
1332,5.255,0.0
1333,5.265,0.0
1334,5.26,0.0
1335,5.245,0.0
1336,5.23,0.0
1337,5.245,0.0
1338,5.245,0.0
1339,5.235,0.0
1340,5.22,0.0
1341,5.23,0.0
1342,5.24,0.0
1343,5.24,0.0
1344,5.215,0.0
1345,5.225,0.0
1346,5.235,0.0
1347,5.225,0.0
1348,5.235,0.0
1349,5.23,0.0
1350,5.235,0.0
1351,5.235,0.0
1352,5.235,0.0
1353,5.225,0.0
1354,5.24,0.0
1355,5.235,0.0
1356,5.225,0.0
1357,5.215,0.0
1358,5.23,0.0
1359,5.22,0.0
1360,5.205,0.0
1361,5.195,0.0
1362,5.2,0.0
1363,5.205,0.0
1364,5.19,0.0
1365,5.185,0.0
1366,5.185,0.0
1367,5.18,0.0
1368,5.165,0.0
1369,5.15,0.0
1370,5.15,0.0
1371,5.16,0.0
1372,5.145,0.0
1373,5.135,0.0
1374,5.13,0.0
1375,5.13,0.0
1376,5.125,0.0
1377,5.11,0.0
1378,5.09,0.0
1379,5.11,0.0
1380,5.1,0.0
1381,5.105,0.0
1382,5.09,0.0
1383,5.09,0.0
1384,5.105,0.0
1385,5.075,0.0
1386,5.065,0.0
1387,5.07,0.0
1388,5.08,0.0
1389,5.065,0.0
1390,5.05,0.0
1391,5.055,0.0
1392,5.065,0.0
1393,5.06,0.0
1394,5.05,0.0
1395,5.05,0.0
1396,5.065,0.0
1397,5.05,0.0
1398,5.045,0.0
1399,5.04,0.0
1400,5.035,0.0
1401,5.045,0.0
1402,5.03,0.0
1403,5.025,0.0
1404,5.035,0.0
1405,5.045,0.0
1406,5.03,0.0
1407,5.02,0.0
1408,5.03,0.0
1409,5.035,0.0
1410,5.025,0.0
1411,5.02,0.0
1412,5.02,0.0
1413,5.02,0.0
1414,5.015,0.0
1415,5.01,0.0
1416,5.02,0.0
1417,5.02,0.0
1418,5.02,0.0
1419,5.02,0.0
1420,5.04,0.0
1421,5.1,0.0
1422,5.275,0.0
1423,5.76,0.0
1424,6.025,0.0
1425,6.005,0.0
1426,5.475,0.0
1427,5.39,0.0
1428,5.31,0.0
1429,5.23,0.0
1430,5.09,0.0
1431,4.865,0.0
1432,4.585,0.0
1433,4.295,0.0
1434,3.98,0.0
1435,3.69,0.0
1436,3.42,0.0
1437,3.21,0.0
1438,2.945,0.0
1439,2.65,0.0
1440,2.465,0.0
1441,2.345,0.0
1442,2.25,0.0
1443,2.155,0.0
1444,2.115,0.0
1445,2.11,0.0
1446,2.115,0.0
1447,2.1,0.0
1448,2.09,0.0
1449,2.1,0.0
1450,2.105,0.0
1451,2.15,0.0
1452,2.2,0.0
1453,2.33,0.0
1454,2.525,0.0
1455,2.76,0.0
1456,3.06,0.0
1457,3.42,0.0
1458,3.81,0.0
1459,4.17,0.0
1460,4.48,0.0
1461,4.765,0.0
1462,5.065,0.0
1463,5.31,0.0
1464,5.52,0.0
1465,5.675,0.0
1466,5.78,0.0
1467,5.845,0.0
1468,5.9,0.0
1469,5.945,0.0
1470,6.0,0.0
1471,6.04,0.0
1472,6.08,0.0
1473,6.105,0.0
1474,6.145,0.0
1475,6.16,0.0
1476,6.215,0.0
1477,6.245,0.0
1478,6.28,0.0
1479,6.335,0.0
1480,6.375,0.0
1481,6.395,0.0
1482,6.43,0.0
1483,6.47,0.0
1484,6.515,0.0
1485,6.55,0.0
1486,6.59,0.0
1487,6.635,0.0
1488,6.68,0.0
1489,6.715,0.0
1490,6.75,0.0
1491,6.805,0.0
1492,6.845,0.0
1493,6.87,0.0
1494,6.89,0.0
1495,6.92,0.0
1496,6.95,0.0
1497,6.955,0.0
1498,6.95,0.0
1499,6.94,0.0
1500,6.935,0.0
1501,6.91,0.0
1502,6.875,0.0
1503,6.835,0.0
1504,6.8,0.0
1505,6.735,0.0
1506,6.67,0.0
1507,6.59,0.0
1508,6.525,0.0
1509,6.43,0.0
1510,6.325,0.0
1511,6.225,0.0
1512,6.155,0.0
1513,6.055,0.0
1514,5.965,0.0
1515,5.885,0.0
1516,5.805,0.0
1517,5.745,0.0
1518,5.66,0.0
1519,5.595,0.0
1520,5.55,0.0
1521,5.505,0.0
1522,5.45,0.0
1523,5.39,0.0
1524,5.365,0.0
1525,5.37,0.0
1526,5.315,0.0
1527,5.285,0.0
1528,5.27,0.0
1529,5.27,0.0
1530,5.255,0.0
1531,5.235,0.0
1532,5.23,0.0
1533,5.235,0.0
1534,5.225,0.0
1535,5.215,0.0
1536,5.205,0.0
1537,5.205,0.0
1538,5.215,0.0
1539,5.215,0.0
1540,5.2,0.0
1541,5.21,0.0
1542,5.24,0.0
1543,5.25,0.0
1544,5.24,0.0
1545,5.255,0.0
1546,5.27,0.0
1547,5.265,0.0
1548,5.24,0.0
1549,5.245,0.0
1550,5.25,0.0
1551,5.255,0.0
1552,5.245,0.0
1553,5.24,0.0
1554,5.25,0.0
1555,5.24,0.0
1556,5.21,0.0
1557,5.18,0.0
1558,5.175,0.0
1559,5.16,0.0
1560,5.14,0.0
1561,5.12,0.0
1562,5.115,0.0
1563,5.115,0.0
1564,5.095,0.0
1565,5.095,0.0
1566,5.11,0.0
1567,5.125,0.0
1568,5.115,0.0
1569,5.095,0.0
1570,5.09,0.0
1571,5.105,0.0
1572,5.085,0.0
1573,5.08,0.0
1574,5.075,0.0
1575,5.09,0.0
1576,5.07,0.0
1577,5.05,0.0
1578,5.045,0.0
1579,5.055,0.0
1580,5.055,0.0
1581,5.04,0.0
1582,5.03,0.0
1583,5.03,0.0
1584,5.04,0.0
1585,5.02,0.0
1586,5.01,0.0
1587,5.005,0.0
1588,5.005,0.0
1589,5.005,0.0
1590,5.0,0.0
1591,5.005,0.0
1592,5.01,0.0
1593,4.995,0.0
1594,4.99,0.0
1595,4.99,0.0
1596,5.015,0.0
1597,4.995,0.0
1598,4.975,0.0
1599,4.975,0.0
1600,4.975,0.0
1601,4.995,0.0
1602,4.98,0.0
1603,4.975,0.0
1604,4.99,0.0
1605,4.99,0.0
1606,4.985,0.0
1607,4.975,0.0
1608,4.99,0.0
1609,4.995,0.0
1610,4.98,0.0
1611,4.97,0.0
1612,4.98,0.0
1613,4.985,0.0
1614,4.975,0.0
1615,4.965,0.0
1616,4.975,0.0
1617,4.98,0.0
1618,4.975,0.0
1619,4.965,0.0
1620,4.97,0.0
1621,4.99,0.0
1622,4.98,0.0
1623,4.975,0.0
1624,4.985,0.0
1625,5.0,0.0
1626,5.015,0.0
1627,5.095,0.0
1628,5.48,0.0
1629,5.925,0.0
1630,5.78,0.0
1631,5.485,0.0
1632,5.39,0.0
1633,5.345,0.0
1634,5.285,0.0
1635,5.215,0.0
1636,5.115,0.0
1637,4.97,0.0
1638,4.74,0.0
1639,4.42,0.0
1640,4.07,0.0
1641,3.735,0.0
1642,3.385,0.0
1643,3.045,0.0
1644,2.825,0.0
1645,2.665,0.0
1646,2.555,0.0
1647,2.48,0.0
1648,2.39,0.0
1649,2.285,0.0
1650,2.25,0.0
1651,2.165,0.0
1652,2.14,0.0
1653,2.1,0.0
1654,2.105,0.0
1655,2.095,0.0
1656,2.08,0.0
1657,2.085,0.0
1658,2.11,0.0
1659,2.14,0.0
1660,2.18,0.0
1661,2.26,0.0
1662,2.405,0.0
1663,2.585,0.0
1664,2.785,0.0
1665,3.01,0.0
1666,3.295,0.0
1667,3.605,0.0
1668,3.895,0.0
1669,4.15,0.0
1670,4.425,0.0
1671,4.69,0.0
1672,4.92,0.0
1673,5.125,0.0
1674,5.31,0.0
1675,5.37,0.0
1676,5.645,0.0
1677,5.73,0.0
1678,5.805,0.0
1679,5.875,0.0
1680,5.93,0.0
1681,5.97,0.0
1682,6.005,0.0
1683,6.065,0.0
1684,6.1,0.0
1685,6.15,0.0
1686,6.185,0.0
1687,6.24,0.0
1688,6.285,0.0
1689,6.33,0.0
1690,6.365,0.0
1691,6.43,0.0
1692,6.475,0.0
1693,6.515,0.0
1694,6.555,0.0
1695,6.62,0.0
1696,6.665,0.0
1697,6.71,0.0
1698,6.745,0.0
1699,6.795,0.0
1700,6.81,0.0
1701,6.875,0.0
1702,6.91,0.0
1703,6.95,0.0
1704,6.995,0.0
1705,7.015,0.0
1706,7.035,0.0
1707,7.055,0.0
1708,7.08,0.0
1709,7.1,0.0
1710,7.095,0.0
1711,7.08,0.0
1712,7.09,0.0
1713,7.07,0.0
1714,7.03,0.0
1715,6.98,0.0
1716,6.95,0.0
1717,6.91,0.0
1718,6.825,0.0
1719,6.765,0.0
1720,6.705,0.0
1721,6.64,0.0
1722,6.56,0.0
1723,6.465,0.0
1724,6.395,0.0
1725,6.375,0.0
1726,6.24,0.0
1727,6.15,0.0
1728,6.07,0.0
1729,6.02,0.0
1730,5.925,0.0
1731,5.855,0.0
1732,5.78,0.0
1733,5.735,0.0
1734,5.68,0.0
1735,5.62,0.0
1736,5.565,0.0
1737,5.53,0.0
1738,5.49,0.0
1739,5.45,0.0
1740,5.405,0.0
1741,5.385,0.0
1742,5.355,0.0
1743,5.335,0.0
1744,5.305,0.0
1745,5.28,0.0
1746,5.27,0.0
1747,5.24,0.0
1748,5.215,0.0
1749,5.205,0.0
1750,5.21,0.0
1751,5.19,0.0
1752,5.17,0.0
1753,5.16,0.0
1754,5.17,0.0
1755,5.155,0.0
1756,5.15,0.0
1757,5.13,0.0
1758,5.155,0.0
1759,5.155,0.0
1760,5.14,0.0
1761,5.135,0.0
1762,5.14,0.0
1763,5.14,0.0
1764,5.13,0.0
1765,5.125,0.0
1766,5.13,0.0
1767,5.14,0.0
1768,5.13,0.0
1769,5.12,0.0
1770,5.14,0.0
1771,5.15,0.0
1772,5.13,0.0
1773,5.115,0.0
1774,5.13,0.0
1775,5.135,0.0
1776,5.14,0.0
1777,5.125,0.0
1778,5.12,0.0
1779,5.125,0.0
1780,5.12,0.0
1781,5.115,0.0
1782,5.105,0.0
1783,5.125,0.0
1784,5.125,0.0
1785,5.105,0.0
1786,5.095,0.0
1787,5.095,0.0
1788,5.095,0.0
1789,5.09,0.0
1790,5.08,0.0
1791,5.07,0.0
1792,5.085,0.0
1793,5.07,0.0
1794,5.05,0.0
1795,5.055,0.0
1796,5.06,0.0
1797,5.05,0.0
1798,5.04,0.0
1799,5.04,0.0
1800,5.05,0.0
1801,5.04,0.0
1802,5.025,0.0
1803,5.015,0.0
1804,5.03,0.0
1805,5.03,0.0
1806,5.01,0.0
1807,5.0,0.0
1808,5.02,0.0
1809,5.025,0.0
1810,5.0,0.0
1811,4.99,0.0
1812,5.01,0.0
1813,5.01,0.0
1814,5.015,0.0
1815,5.015,0.0
1816,5.04,0.0
1817,5.045,0.0
1818,5.04,0.0
1819,5.03,0.0
1820,5.03,0.0
1821,5.045,0.0
1822,5.04,0.0
1823,5.025,0.0
1824,5.03,0.0
1825,5.035,0.0
1826,5.02,0.0
1827,4.995,0.0
1828,4.98,0.0
1829,4.97,0.0
1830,4.955,0.0
1831,4.945,0.0
1832,4.93,0.0
1833,4.935,0.0
1834,4.93,0.0
1835,4.915,0.0
1836,4.915,0.0
1837,4.945,0.0
1838,4.955,0.0
1839,4.945,0.0
1840,4.935,0.0
1841,4.955,0.0
1842,4.96,0.0
1843,4.98,0.0
1844,5.06,0.0
1845,5.395,0.0
1846,5.84,0.0
1847,5.74,0.0
1848,5.445,0.0
1849,5.355,0.0
1850,5.335,0.0
1851,5.29,0.0
1852,5.225,0.0
1853,5.14,0.0
1854,5.01,0.0
1855,4.79,0.0
1856,4.51,0.0
1857,4.195,0.0
1858,3.92,0.0
1859,3.6,0.0
1860,3.33,0.0
1861,3.155,0.0
1862,3.035,0.0
1863,2.92,0.0
1864,2.77,0.0
1865,2.58,0.0
1866,2.425,0.0
1867,2.335,0.0
1868,2.28,0.0
1869,2.2,0.0
1870,2.16,0.0
1871,2.135,0.0
1872,2.105,0.0
1873,2.09,0.0
1874,2.09,0.0
1875,2.095,0.0
1876,2.125,0.0
1877,2.18,0.0
1878,2.29,0.0
1879,2.445,0.0
1880,2.625,0.0
1881,2.835,0.0
1882,3.115,0.0
1883,3.45,0.0
1884,3.79,0.0
1885,4.09,0.0
1886,4.41,0.0
1887,4.695,0.0
1888,4.95,0.0
1889,5.175,0.0
1890,5.36,0.0
1891,5.53,0.0
1892,5.655,0.0
1893,5.745,0.0
1894,5.8,0.0
1895,5.865,0.0
1896,5.93,0.0
1897,5.97,0.0
1898,6.0,0.0
1899,6.055,0.0
1900,6.075,0.0
1901,6.145,0.0
1902,6.17,0.0
1903,6.215,0.0
1904,6.27,0.0
1905,6.305,0.0
1906,6.345,0.0
1907,6.39,0.0
1908,6.44,0.0
1909,6.48,0.0
1910,6.52,0.0
1911,6.565,0.0
1912,6.625,0.0
1913,6.675,0.0
1914,6.705,0.0
1915,6.75,0.0
1916,6.8,0.0
1917,6.85,0.0
1918,6.87,0.0
1919,6.91,0.0
1920,6.95,0.0
1921,6.995,0.0
1922,7.01,0.0
1923,7.0,0.0
1924,7.03,0.0
1925,7.04,0.0
1926,7.03,0.0
1927,6.995,0.0
1928,6.985,0.0
1929,6.975,0.0
1930,6.92,0.0
1931,6.855,0.0
1932,6.8,0.0
1933,6.75,0.0
1934,6.695,0.0
1935,6.6,0.0
1936,6.525,0.0
1937,6.455,0.0
1938,6.375,0.0
1939,6.28,0.0
1940,6.195,0.0
1941,6.115,0.0
1942,6.04,0.0
1943,5.955,0.0
1944,5.89,0.0
1945,5.82,0.0
1946,5.76,0.0
1947,5.685,0.0
1948,5.605,0.0
1949,5.565,0.0
1950,5.545,0.0
1951,5.47,0.0
1952,5.41,0.0
1953,5.355,0.0
1954,5.355,0.0
1955,5.32,0.0
1956,5.28,0.0
1957,5.255,0.0
1958,5.235,0.0
1959,5.225,0.0
1960,5.19,0.0
1961,5.17,0.0
1962,5.16,0.0
1963,5.155,0.0
1964,5.14,0.0
1965,5.115,0.0
1966,5.125,0.0
1967,5.125,0.0
1968,5.105,0.0
1969,5.09,0.0
1970,5.105,0.0
1971,5.1,0.0
1972,5.095,0.0
1973,5.08,0.0
1974,5.09,0.0
1975,5.09,0.0
1976,5.1,0.0
1977,5.085,0.0
1978,5.085,0.0
1979,5.1,0.0
1980,5.1,0.0
1981,5.1,0.0
1982,5.08,0.0
1983,5.105,0.0
1984,5.11,0.0
1985,5.09,0.0
1986,5.09,0.0
1987,5.095,0.0
1988,5.1,0.0
1989,5.105,0.0
1990,5.08,0.0
1991,5.095,0.0
1992,5.105,0.0
1993,5.105,0.0
1994,5.09,0.0
1995,5.09,0.0
1996,5.105,0.0
1997,5.085,0.0
1998,5.085,0.0
1999,5.08,0.0
2000,5.075,0.0
2001,5.07,0.0
2002,5.055,0.0
2003,5.045,0.0
2004,5.055,0.0
2005,5.045,0.0
2006,5.03,0.0
2007,5.025,0.0
2008,5.035,0.0
2009,5.03,0.0
2010,5.01,0.0
2011,5.005,0.0
2012,5.02,0.0
2013,5.015,0.0
2014,5.005,0.0
2015,4.985,0.0
2016,4.98,0.0
2017,4.995,0.0
2018,4.975,0.0
2019,4.97,0.0
2020,4.97,0.0
2021,4.99,0.0
2022,4.97,0.0
2023,4.95,0.0
2024,4.96,0.0
2025,4.965,0.0
2026,4.965,0.0
2027,4.935,0.0
2028,4.945,0.0
2029,4.95,0.0
2030,4.965,0.0
2031,4.945,0.0
2032,4.935,0.0
2033,4.935,0.0
2034,4.94,0.0
2035,4.925,0.0
2036,4.925,0.0
2037,4.93,0.0
2038,4.935,0.0
2039,4.92,0.0
2040,4.92,0.0
2041,4.925,0.0
2042,4.92,0.0
2043,4.92,0.0
2044,4.9,0.0
2045,4.915,0.0
2046,4.935,0.0
2047,4.92,0.0
2048,4.895,0.0
2049,4.905,0.0
2050,4.915,0.0
2051,4.91,0.0
2052,4.905,0.0
2053,4.905,0.0
2054,4.925,0.0
2055,4.955,0.0
2056,5.04,0.0
2057,5.4,0.0
2058,5.825,0.0
2059,5.73,0.0
2060,5.42,0.0
2061,5.315,0.0
2062,5.265,0.0
2063,5.225,0.0
2064,5.165,0.0
2065,5.06,0.0
2066,4.89,0.0
2067,4.595,0.0
2068,4.23,0.0
2069,3.87,0.0
2070,3.485,0.0
2071,3.125,0.0
2072,2.825,0.0
2073,2.585,0.0
2074,2.455,0.0
2075,2.42,0.0
2076,2.195,0.0
2077,2.09,0.0
2078,2.045,0.0
2079,2.03,0.0
2080,2.01,0.0
2081,1.995,0.0
2082,1.99,0.0
2083,2.0,0.0
2084,2.005,0.0
2085,2.005,0.0
2086,2.02,0.0
2087,2.07,0.0
2088,2.17,0.0
2089,2.305,0.0
2090,2.515,0.0
2091,2.775,0.0
2092,3.125,0.0
2093,3.48,0.0
2094,3.785,0.0
2095,4.115,0.0
2096,4.45,0.0
2097,4.725,0.0
2098,4.955,0.0
2099,5.19,0.0
2100,5.265,0.0
2101,5.575,0.0
2102,5.66,0.0
2103,5.74,0.0
2104,5.805,0.0
2105,5.845,0.0
2106,5.87,0.0
2107,5.915,0.0
2108,5.965,0.0
2109,6.0,0.0
2110,6.015,0.0
2111,6.045,0.0
2112,6.09,0.0
2113,6.125,0.0
2114,6.135,0.0
2115,6.175,0.0
2116,6.22,0.0
2117,6.265,0.0
2118,6.29,0.0
2119,6.325,0.0
2120,6.37,0.0
2121,6.415,0.0
2122,6.455,0.0
2123,6.49,0.0
2124,6.535,0.0
2125,6.555,0.0
2126,6.62,0.0
2127,6.64,0.0
2128,6.68,0.0
2129,6.73,0.0
2130,6.765,0.0
2131,6.795,0.0
2132,6.82,0.0
2133,6.855,0.0
2134,6.87,0.0
2135,6.88,0.0
2136,6.875,0.0
2137,6.89,0.0
2138,6.89,0.0
2139,6.865,0.0
2140,6.825,0.0
2141,6.81,0.0
2142,6.77,0.0
2143,6.725,0.0
2144,6.64,0.0
2145,6.57,0.0
2146,6.51,0.0
2147,6.415,0.0
2148,6.33,0.0
2149,6.24,0.0
2150,6.215,0.0
2151,6.055,0.0
2152,5.95,0.0
2153,5.885,0.0
2154,5.815,0.0
2155,5.735,0.0
2156,5.645,0.0
2157,5.59,0.0
2158,5.545,0.0
2159,5.48,0.0
2160,5.415,0.0
2161,5.37,0.0
2162,5.34,0.0
2163,5.31,0.0
2164,5.265,0.0
2165,5.23,0.0
2166,5.22,0.0
2167,5.205,0.0
2168,5.175,0.0
2169,5.15,0.0
2170,5.155,0.0
2171,5.145,0.0
2172,5.145,0.0
2173,5.125,0.0
2174,5.125,0.0
2175,5.12,0.0
2176,5.14,0.0
2177,5.12,0.0
2178,5.115,0.0
2179,5.135,0.0
2180,5.125,0.0
2181,5.11,0.0
2182,5.12,0.0
2183,5.125,0.0
2184,5.12,0.0
2185,5.115,0.0
2186,5.11,0.0
2187,5.11,0.0
2188,5.125,0.0
2189,5.12,0.0
2190,5.105,0.0
2191,5.115,0.0
2192,5.12,0.0
2193,5.11,0.0
2194,5.095,0.0
2195,5.11,0.0
2196,5.105,0.0
2197,5.1,0.0
2198,5.08,0.0
2199,5.085,0.0
2200,5.09,0.0
2201,5.08,0.0
2202,5.06,0.0
2203,5.055,0.0
2204,5.065,0.0
2205,5.06,0.0
2206,5.04,0.0
2207,5.04,0.0
2208,5.055,0.0
2209,5.04,0.0
2210,5.01,0.0
2211,5.0,0.0
2212,5.01,0.0
2213,5.015,0.0
2214,4.99,0.0
2215,4.98,0.0
2216,4.99,0.0
2217,4.99,0.0
2218,4.985,0.0
2219,4.95,0.0
2220,4.965,0.0
2221,4.975,0.0
2222,4.965,0.0
2223,4.94,0.0
2224,4.955,0.0
2225,4.96,0.0
2226,4.955,0.0
2227,4.935,0.0
2228,4.94,0.0
2229,4.935,0.0
2230,4.94,0.0
2231,4.93,0.0
2232,4.925,0.0
2233,4.93,0.0
2234,4.93,0.0
2235,4.915,0.0
2236,4.905,0.0
2237,4.92,0.0
2238,4.92,0.0
2239,4.915,0.0
2240,4.905,0.0
2241,4.905,0.0
2242,4.92,0.0
2243,4.905,0.0
2244,4.885,0.0
2245,4.895,0.0
2246,4.91,0.0
2247,4.9,0.0
2248,4.89,0.0
2249,4.885,0.0
2250,4.885,0.0
2251,4.895,0.0
2252,4.88,0.0
2253,4.88,0.0
2254,4.89,0.0
2255,4.88,0.0
2256,4.88,0.0
2257,4.885,0.0
2258,4.89,0.0
2259,4.89,0.0
2260,4.885,0.0
2261,4.885,0.0
2262,4.925,0.0
2263,4.975,0.0
2264,5.2,0.0
2265,5.705,0.0
2266,5.805,0.0
2267,5.46,0.0
2268,5.295,0.0
2269,5.225,0.0
2270,5.185,0.0
2271,5.12,0.0
2272,5.02,0.0
2273,4.82,0.0
2274,4.545,0.0
2275,4.45,0.0
2276,3.845,0.0
2277,3.45,0.0
2278,3.115,0.0
2279,2.85,0.0
2280,2.645,0.0
2281,2.47,0.0
2282,2.36,0.0
2283,2.235,0.0
2284,2.135,0.0
2285,2.06,0.0
2286,2.035,0.0
2287,2.02,0.0
2288,2.005,0.0
2289,1.99,0.0
2290,1.99,0.0
2291,2.005,0.0
2292,2.015,0.0
2293,2.02,0.0
2294,2.04,0.0
2295,2.12,0.0
2296,2.235,0.0
2297,2.39,0.0
2298,2.565,0.0
2299,2.84,0.0
2300,2.94,0.0
2301,3.5,0.0
2302,3.815,0.0
2303,4.15,0.0
2304,4.46,0.0
2305,4.745,0.0
2306,4.975,0.0
2307,5.195,0.0
2308,5.4,0.0
2309,5.585,0.0
2310,5.7,0.0
2311,5.775,0.0
2312,5.84,0.0
2313,5.88,0.0
2314,5.91,0.0
2315,5.945,0.0
2316,5.985,0.0
2317,6.02,0.0
2318,6.04,0.0
2319,6.055,0.0
2320,6.085,0.0
2321,6.11,0.0
2322,6.13,0.0
2323,6.135,0.0
2324,6.19,0.0
2325,6.21,0.0
2326,6.28,0.0
2327,6.31,0.0
2328,6.34,0.0
2329,6.395,0.0
2330,6.415,0.0
2331,6.445,0.0
2332,6.485,0.0
2333,6.535,0.0
2334,6.57,0.0
2335,6.595,0.0
2336,6.635,0.0
2337,6.675,0.0
2338,6.71,0.0
2339,6.73,0.0
2340,6.755,0.0
2341,6.785,0.0
2342,6.805,0.0
2343,6.81,0.0
2344,6.815,0.0
2345,6.825,0.0
2346,6.835,0.0
2347,6.805,0.0
2348,6.775,0.0
2349,6.75,0.0
2350,6.74,0.0
2351,6.665,0.0
2352,6.59,0.0
2353,6.545,0.0
2354,6.475,0.0
2355,6.4,0.0
2356,6.305,0.0
2357,6.22,0.0
2358,6.145,0.0
2359,6.055,0.0
2360,5.955,0.0
2361,5.86,0.0
2362,5.795,0.0
2363,5.725,0.0
2364,5.65,0.0
2365,5.57,0.0
2366,5.52,0.0
2367,5.465,0.0
2368,5.405,0.0
2369,5.345,0.0
2370,5.33,0.0
2371,5.3,0.0
2372,5.25,0.0
2373,5.215,0.0
2374,5.195,0.0
2375,5.195,0.0
2376,5.165,0.0
2377,5.135,0.0
2378,5.125,0.0
2379,5.14,0.0
2380,5.13,0.0
2381,5.11,0.0
2382,5.11,0.0
2383,5.115,0.0
2384,5.115,0.0
2385,5.105,0.0
2386,5.1,0.0
2387,5.11,0.0
2388,5.11,0.0
2389,5.105,0.0
2390,5.1,0.0
2391,5.105,0.0
2392,5.115,0.0
2393,5.11,0.0
2394,5.105,0.0
2395,5.105,0.0
2396,5.12,0.0
2397,5.11,0.0
2398,5.095,0.0
2399,5.095,0.0
2400,5.105,0.0
2401,5.105,0.0
2402,5.085,0.0
2403,5.085,0.0
2404,5.09,0.0
2405,5.085,0.0
2406,5.075,0.0
2407,5.08,0.0
2408,5.08,0.0
2409,5.075,0.0
2410,5.05,0.0
2411,5.05,0.0
2412,5.05,0.0
2413,5.05,0.0
2414,5.035,0.0
2415,5.025,0.0
2416,5.03,0.0
2417,5.03,0.0
2418,5.01,0.0
2419,4.985,0.0
2420,5.0,0.0
2421,5.005,0.0
2422,4.98,0.0
2423,4.97,0.0
2424,4.97,0.0
2425,4.975,0.0
2426,4.965,0.0
2427,4.95,0.0
2428,4.95,0.0
2429,4.955,0.0
2430,4.955,0.0
2431,4.935,0.0
2432,4.94,0.0
2433,4.945,0.0
2434,4.945,0.0
2435,4.935,0.0
2436,4.92,0.0
2437,4.925,0.0
2438,4.935,0.0
2439,4.925,0.0
2440,4.915,0.0
2441,4.92,0.0
2442,4.935,0.0
2443,4.91,0.0
2444,4.905,0.0
2445,4.92,0.0
2446,4.93,0.0
2447,4.915,0.0
2448,4.905,0.0
2449,4.915,0.0
2450,4.92,0.0
2451,4.915,0.0
2452,4.9,0.0
2453,4.91,0.0
2454,4.915,0.0
2455,4.905,0.0
2456,4.885,0.0
2457,4.905,0.0
2458,4.9,0.0
2459,4.915,0.0
2460,4.895,0.0
2461,4.89,0.0
2462,4.91,0.0
2463,4.915,0.0
2464,4.93,0.0
2465,4.965,0.0
2466,5.11,0.0
2467,5.62,0.0
2468,5.96,0.0
2469,5.64,0.0
2470,5.375,0.0
2471,5.315,0.0
2472,5.255,0.0
2473,5.2,0.0
2474,5.145,0.0
2475,5.115,0.0
2476,4.76,0.0
2477,4.415,0.0
2478,4.05,0.0
2479,3.69,0.0
2480,3.315,0.0
2481,3.0,0.0
2482,2.765,0.0
2483,2.605,0.0
2484,2.46,0.0
2485,2.305,0.0
2486,2.155,0.0
2487,2.105,0.0
2488,2.07,0.0
2489,2.025,0.0
2490,2.005,0.0
2491,2.02,0.0
2492,2.005,0.0
2493,2.005,0.0
2494,2.005,0.0
2495,2.035,0.0
2496,2.095,0.0
2497,2.17,0.0
2498,2.3,0.0
2499,2.51,0.0
2500,2.575,0.0
2501,3.05,0.0
2502,3.37,0.0
2503,3.72,0.0
2504,4.045,0.0
2505,4.365,0.0
2506,4.66,0.0
2507,4.935,0.0
2508,5.16,0.0
2509,5.36,0.0
2510,5.525,0.0
2511,5.645,0.0
2512,5.745,0.0
2513,5.8,0.0
2514,5.84,0.0
2515,5.89,0.0
2516,5.94,0.0
2517,5.98,0.0
2518,6.0,0.0
2519,6.035,0.0
2520,6.095,0.0
2521,6.115,0.0
2522,6.145,0.0
2523,6.17,0.0
2524,6.205,0.0
2525,6.215,0.0
2526,6.285,0.0
2527,6.315,0.0
2528,6.37,0.0
2529,6.425,0.0
2530,6.475,0.0
2531,6.505,0.0
2532,6.55,0.0
2533,6.61,0.0
2534,6.66,0.0
2535,6.685,0.0
2536,6.73,0.0
2537,6.8,0.0
2538,6.84,0.0
2539,6.855,0.0
2540,6.885,0.0
2541,6.92,0.0
2542,6.935,0.0
2543,6.93,0.0
2544,6.92,0.0
2545,6.92,0.0
2546,6.92,0.0
2547,6.89,0.0
2548,6.855,0.0
2549,6.825,0.0
2550,6.815,0.0
2551,6.74,0.0
2552,6.68,0.0
2553,6.64,0.0
2554,6.575,0.0
2555,6.485,0.0
2556,6.39,0.0
2557,6.305,0.0
2558,6.225,0.0
2559,6.145,0.0
2560,6.035,0.0
2561,5.955,0.0
2562,5.88,0.0
2563,5.805,0.0
2564,5.72,0.0
2565,5.64,0.0
2566,5.575,0.0
2567,5.53,0.0
2568,5.455,0.0
2569,5.4,0.0
2570,5.36,0.0
2571,5.325,0.0
2572,5.285,0.0
2573,5.235,0.0
2574,5.22,0.0
2575,5.215,0.0
2576,5.185,0.0
2577,5.15,0.0
2578,5.15,0.0
2579,5.145,0.0
2580,5.135,0.0
2581,5.12,0.0
2582,5.12,0.0
2583,5.135,0.0
2584,5.13,0.0
2585,5.105,0.0
2586,5.11,0.0
2587,5.11,0.0
2588,5.12,0.0
2589,5.115,0.0
2590,5.11,0.0
2591,5.125,0.0
2592,5.135,0.0
2593,5.12,0.0
2594,5.11,0.0
2595,5.13,0.0
2596,5.125,0.0
2597,5.125,0.0
2598,5.11,0.0
2599,5.12,0.0
2600,5.125,0.0
2601,5.125,0.0
2602,5.11,0.0
2603,5.115,0.0
2604,5.115,0.0
2605,5.12,0.0
2606,5.105,0.0
2607,5.095,0.0
2608,5.095,0.0
2609,5.09,0.0
2610,5.075,0.0
2611,5.065,0.0
2612,5.065,0.0
2613,5.055,0.0
2614,5.06,0.0
2615,5.04,0.0
2616,5.055,0.0
2617,5.045,0.0
2618,5.025,0.0
2619,5.0,0.0
2620,5.005,0.0
2621,5.025,0.0
2622,5.005,0.0
2623,4.99,0.0
2624,4.995,0.0
2625,5.0,0.0
2626,4.995,0.0
2627,4.98,0.0
2628,4.97,0.0
2629,4.98,0.0
2630,4.98,0.0
2631,4.96,0.0
2632,4.955,0.0
2633,4.96,0.0
2634,4.96,0.0
2635,4.94,0.0
2636,4.93,0.0
2637,4.96,0.0
2638,4.95,0.0
2639,4.94,0.0
2640,4.93,0.0
2641,4.94,0.0
2642,4.94,0.0
2643,4.93,0.0
2644,4.915,0.0
2645,4.93,0.0
2646,4.935,0.0
2647,4.925,0.0
2648,4.905,0.0
2649,4.925,0.0
2650,4.92,0.0
2651,4.92,0.0
2652,4.91,0.0
2653,4.9,0.0
2654,4.91,0.0
2655,4.905,0.0
2656,4.9,0.0
2657,4.895,0.0
2658,4.905,0.0
2659,4.91,0.0
2660,4.9,0.0
2661,4.895,0.0
2662,4.91,0.0
2663,4.91,0.0
2664,4.905,0.0
2665,4.895,0.0
2666,4.92,0.0
2667,4.94,0.0
2668,4.995,0.0
2669,5.3,0.0
2670,5.83,0.0
2671,5.845,0.0
2672,5.475,0.0
2673,5.28,0.0
2674,5.205,0.0
2675,5.18,0.0
2676,5.01,0.0
2677,4.82,0.0
2678,4.61,0.0
2679,4.37,0.0
2680,4.065,0.0
2681,3.765,0.0
2682,3.545,0.0
2683,3.365,0.0
2684,3.17,0.0
2685,2.87,0.0
2686,2.605,0.0
2687,2.44,0.0
2688,2.31,0.0
2689,2.19,0.0
2690,2.095,0.0
2691,2.065,0.0
2692,2.04,0.0
2693,2.02,0.0
2694,1.99,0.0
2695,2.01,0.0
2696,2.01,0.0
2697,2.02,0.0
2698,2.015,0.0
2699,2.08,0.0
2700,2.105,0.0
2701,2.31,0.0
2702,2.49,0.0
2703,2.755,0.0
2704,3.06,0.0
2705,3.38,0.0
2706,3.725,0.0
2707,4.08,0.0
2708,4.375,0.0
2709,4.655,0.0
2710,4.895,0.0
2711,5.11,0.0
2712,5.345,0.0
2713,5.515,0.0
2714,5.625,0.0
2715,5.695,0.0
2716,5.76,0.0
2717,5.815,0.0
2718,5.85,0.0
2719,5.89,0.0
2720,5.95,0.0
2721,5.995,0.0
2722,6.005,0.0
2723,6.04,0.0
2724,6.08,0.0
2725,6.095,0.0
2726,6.145,0.0
2727,6.16,0.0
2728,6.2,0.0
2729,6.24,0.0
2730,6.275,0.0
2731,6.295,0.0
2732,6.34,0.0
2733,6.385,0.0
2734,6.42,0.0
2735,6.45,0.0
2736,6.495,0.0
2737,6.55,0.0
2738,6.58,0.0
2739,6.605,0.0
2740,6.64,0.0
2741,6.685,0.0
2742,6.725,0.0
2743,6.755,0.0
2744,6.77,0.0
2745,6.805,0.0
2746,6.84,0.0
2747,6.86,0.0
2748,6.85,0.0
2749,6.865,0.0
2750,6.87,0.0
2751,6.865,0.0
2752,6.83,0.0
2753,6.81,0.0
2754,6.78,0.0
2755,6.73,0.0
2756,6.655,0.0
2757,6.6,0.0
2758,6.54,0.0
2759,6.48,0.0
2760,6.385,0.0
2761,6.305,0.0
2762,6.235,0.0
2763,6.15,0.0
2764,6.05,0.0
2765,5.955,0.0
2766,5.9,0.0
2767,5.825,0.0
2768,5.735,0.0
2769,5.655,0.0
2770,5.595,0.0
2771,5.555,0.0
2772,5.485,0.0
2773,5.415,0.0
2774,5.365,0.0
2775,5.35,0.0
2776,5.28,0.0
2777,5.225,0.0
2778,5.2,0.0
2779,5.18,0.0
2780,5.155,0.0
2781,5.115,0.0
2782,5.095,0.0
2783,5.105,0.0
2784,5.11,0.0
2785,5.11,0.0
2786,5.1,0.0
2787,5.1,0.0
2788,5.11,0.0
2789,5.09,0.0
2790,5.08,0.0
2791,5.095,0.0
2792,5.1,0.0
2793,5.095,0.0
2794,5.08,0.0
2795,5.095,0.0
2796,5.095,0.0
2797,5.095,0.0
2798,5.08,0.0
2799,5.1,0.0
2800,5.11,0.0
2801,5.105,0.0
2802,5.09,0.0
2803,5.09,0.0
2804,5.1,0.0
2805,5.1,0.0
2806,5.09,0.0
2807,5.075,0.0
2808,5.085,0.0
2809,5.08,0.0
2810,5.07,0.0
2811,5.06,0.0
2812,5.06,0.0
2813,5.06,0.0
2814,5.055,0.0
2815,5.025,0.0
2816,5.04,0.0
2817,5.035,0.0
2818,5.02,0.0
2819,5.005,0.0
2820,5.005,0.0
2821,5.01,0.0
2822,5.0,0.0
2823,4.98,0.0
2824,4.985,0.0
2825,4.99,0.0
2826,4.99,0.0
2827,4.975,0.0
2828,4.965,0.0
2829,4.98,0.0
2830,4.965,0.0
2831,4.955,0.0
2832,4.955,0.0
2833,4.96,0.0
2834,4.96,0.0
2835,4.95,0.0
2836,4.945,0.0
2837,4.96,0.0
2838,4.965,0.0
2839,4.945,0.0
2840,4.94,0.0
2841,4.94,0.0
2842,4.955,0.0
2843,4.955,0.0
2844,4.93,0.0
2845,4.95,0.0
2846,4.95,0.0
2847,4.95,0.0
2848,4.925,0.0
2849,4.935,0.0
2850,4.94,0.0
2851,4.935,0.0
2852,4.925,0.0
2853,4.925,0.0
2854,4.935,0.0
2855,4.94,0.0
2856,4.93,0.0
2857,4.92,0.0
2858,4.93,0.0
2859,4.925,0.0
2860,4.91,0.0
2861,4.91,0.0
2862,4.92,0.0
2863,4.925,0.0
2864,4.915,0.0
2865,4.9,0.0
2866,4.91,0.0
2867,4.925,0.0
2868,4.92,0.0
2869,4.915,0.0
2870,4.935,0.0
2871,4.995,0.0
2872,5.225,0.0
2873,5.73,0.0
2874,5.885,0.0
2875,5.82,0.0
2876,5.345,0.0
2877,5.285,0.0
2878,5.225,0.0
2879,5.18,0.0
2880,5.06,0.0
2881,4.86,0.0
2882,4.59,0.0
2883,4.25,0.0
2884,3.88,0.0
2885,3.47,0.0
2886,3.09,0.0
2887,2.845,0.0
2888,2.665,0.0
2889,2.5,0.0
2890,2.4,0.0
2891,2.305,0.0
2892,2.195,0.0
2893,2.11,0.0
2894,2.065,0.0
2895,2.045,0.0
2896,2.035,0.0
2897,2.02,0.0
2898,2.0,0.0
2899,2.015,0.0
2900,2.02,0.0
2901,2.04,0.0
2902,2.055,0.0
2903,2.135,0.0
2904,2.25,0.0
2905,2.415,0.0
2906,2.61,0.0
2907,2.87,0.0
2908,3.2,0.0
2909,3.54,0.0
2910,3.835,0.0
2911,4.165,0.0
2912,4.49,0.0
2913,4.765,0.0
2914,4.99,0.0
2915,5.185,0.0
2916,5.385,0.0
2917,5.55,0.0
2918,5.67,0.0
2919,5.735,0.0
2920,5.81,0.0
2921,5.855,0.0
2922,5.905,0.0
2923,5.93,0.0
2924,5.985,0.0
2925,6.0,0.0
2926,6.07,0.0
2927,6.095,0.0
2928,6.13,0.0
2929,6.185,0.0
2930,6.21,0.0
2931,6.24,0.0
2932,6.275,0.0
2933,6.33,0.0
2934,6.37,0.0
2935,6.41,0.0
2936,6.455,0.0
2937,6.51,0.0
2938,6.56,0.0
2939,6.595,0.0
2940,6.635,0.0
2941,6.685,0.0
2942,6.735,0.0
2943,6.76,0.0
2944,6.8,0.0
2945,6.85,0.0
2946,6.885,0.0
2947,6.915,0.0
2948,6.935,0.0
2949,6.96,0.0
2950,6.97,0.0
2951,6.98,0.0
2952,6.97,0.0
2953,6.965,0.0
2954,6.95,0.0
2955,6.91,0.0
2956,6.855,0.0
2957,6.81,0.0
2958,6.755,0.0
2959,6.695,0.0
2960,6.61,0.0
2961,6.525,0.0
2962,6.465,0.0
2963,6.385,0.0
2964,6.28,0.0
2965,6.185,0.0
2966,6.11,0.0
2967,6.035,0.0
2968,5.94,0.0
2969,5.855,0.0
2970,5.8,0.0
2971,5.74,0.0
2972,5.675,0.0
2973,5.605,0.0
2974,5.565,0.0
2975,5.55,0.0
2976,5.475,0.0
2977,5.41,0.0
2978,5.365,0.0
2979,5.325,0.0
2980,5.295,0.0
2981,5.25,0.0
2982,5.21,0.0
2983,5.195,0.0
2984,5.16,0.0
2985,5.12,0.0
2986,5.105,0.0
2987,5.095,0.0
2988,5.09,0.0
2989,5.09,0.0
2990,5.095,0.0
2991,5.115,0.0
2992,5.105,0.0
2993,5.09,0.0
2994,5.08,0.0
2995,5.085,0.0
2996,5.095,0.0
2997,5.085,0.0
2998,5.07,0.0
2999,5.08,0.0
3000,5.09,0.0
3001,5.09,0.0
3002,5.085,0.0
3003,5.085,0.0
3004,5.1,0.0
3005,5.11,0.0
3006,5.09,0.0
3007,5.08,0.0
3008,5.09,0.0
3009,5.095,0.0
3010,5.09,0.0
3011,5.08,0.0
3012,5.085,0.0
3013,5.095,0.0
3014,5.075,0.0
3015,5.065,0.0
3016,5.065,0.0
3017,5.08,0.0
3018,5.06,0.0
3019,5.05,0.0
3020,5.045,0.0
3021,5.05,0.0
3022,5.05,0.0
3023,5.025,0.0
3024,5.025,0.0
3025,5.03,0.0
3026,5.025,0.0
3027,5.0,0.0
3028,4.995,0.0
3029,5.01,0.0
3030,5.005,0.0
3031,5.0,0.0
3032,4.985,0.0
3033,5.0,0.0
3034,4.995,0.0
3035,4.975,0.0
3036,4.975,0.0
3037,4.985,0.0
3038,4.975,0.0
3039,4.96,0.0
3040,4.96,0.0
3041,4.975,0.0
3042,4.97,0.0
3043,4.96,0.0
3044,4.955,0.0
3045,4.955,0.0
3046,4.97,0.0
3047,4.96,0.0
3048,4.945,0.0
3049,4.95,0.0
3050,4.955,0.0
3051,4.95,0.0
3052,4.935,0.0
3053,4.94,0.0
3054,4.94,0.0
3055,4.94,0.0
3056,4.935,0.0
3057,4.94,0.0
3058,4.94,0.0
3059,4.94,0.0
3060,4.93,0.0
3061,4.915,0.0
3062,4.93,0.0
3063,4.935,0.0
3064,4.93,0.0
3065,4.925,0.0
3066,4.94,0.0
3067,4.94,0.0
3068,4.93,0.0
3069,4.925,0.0
3070,4.94,0.0
3071,4.945,0.0
3072,4.965,0.0
3073,5.01,0.0
3074,5.305,0.0
3075,5.44,0.0
3076,5.915,0.0
3077,5.545,0.0
3078,5.38,0.0
3079,5.34,0.0
3080,5.275,0.0
3081,5.195,0.0
3082,5.095,0.0
3083,4.925,0.0
3084,4.675,0.0
3085,4.315,0.0
3086,3.955,0.0
3087,3.595,0.0
3088,3.265,0.0
3089,2.985,0.0
3090,2.765,0.0
3091,2.62,0.0
3092,2.51,0.0
3093,2.375,0.0
3094,2.245,0.0
3095,2.155,0.0
3096,2.125,0.0
3097,2.09,0.0
3098,2.065,0.0
3099,2.05,0.0
3100,2.045,0.0
3101,2.045,0.0
3102,2.045,0.0
3103,2.05,0.0
3104,2.085,0.0
3105,2.145,0.0
3106,2.235,0.0
3107,2.395,0.0
3108,2.58,0.0
3109,2.795,0.0
3110,3.055,0.0
3111,3.365,0.0
3112,3.705,0.0
3113,4.01,0.0
3114,4.305,0.0
3115,4.595,0.0
3116,4.875,0.0
3117,5.09,0.0
3118,5.285,0.0
3119,5.455,0.0
3120,5.615,0.0
3121,5.71,0.0
3122,5.76,0.0
3123,5.805,0.0
3124,5.85,0.0
3125,5.875,0.0
3126,5.95,0.0
3127,5.975,0.0
3128,6.005,0.0
3129,6.055,0.0
3130,6.08,0.0
3131,6.1,0.0
3132,6.125,0.0
3133,6.175,0.0
3134,6.21,0.0
3135,6.24,0.0
3136,6.275,0.0
3137,6.32,0.0
3138,6.365,0.0
3139,6.4,0.0
3140,6.435,0.0
3141,6.495,0.0
3142,6.535,0.0
3143,6.55,0.0
3144,6.585,0.0
3145,6.63,0.0
3146,6.69,0.0
3147,6.725,0.0
3148,6.76,0.0
3149,6.81,0.0
3150,6.83,0.0
3151,6.88,0.0
3152,6.885,0.0
3153,6.915,0.0
3154,6.94,0.0
3155,6.935,0.0
3156,6.92,0.0
3157,6.91,0.0
3158,6.895,0.0
3159,6.86,0.0
3160,6.8,0.0
3161,6.745,0.0
3162,6.7,0.0
3163,6.63,0.0
3164,6.54,0.0
3165,6.455,0.0
3166,6.38,0.0
3167,6.305,0.0
3168,6.22,0.0
3169,6.115,0.0
3170,6.05,0.0
3171,5.975,0.0
3172,5.895,0.0
3173,5.8,0.0
3174,5.755,0.0
3175,5.735,0.0
3176,5.655,0.0
3177,5.59,0.0
3178,5.54,0.0
3179,5.515,0.0
3180,5.47,0.0
3181,5.43,0.0
3182,5.395,0.0
3183,5.39,0.0
3184,5.335,0.0
3185,5.295,0.0
3186,5.26,0.0
3187,5.255,0.0
3188,5.235,0.0
3189,5.2,0.0
3190,5.175,0.0
3191,5.16,0.0
3192,5.16,0.0
3193,5.13,0.0
3194,5.115,0.0
3195,5.115,0.0
3196,5.12,0.0
3197,5.13,0.0
3198,5.125,0.0
3199,5.135,0.0
3200,5.135,0.0
3201,5.13,0.0
3202,5.125,0.0
3203,5.135,0.0
3204,5.135,0.0
3205,5.15,0.0
3206,5.135,0.0
3207,5.135,0.0
3208,5.145,0.0
3209,5.145,0.0
3210,5.13,0.0
3211,5.13,0.0
3212,5.145,0.0
3213,5.15,0.0
3214,5.15,0.0
3215,5.13,0.0
3216,5.14,0.0
3217,5.145,0.0
3218,5.12,0.0
3219,5.12,0.0
3220,5.12,0.0
3221,5.12,0.0
3222,5.12,0.0
3223,5.09,0.0
3224,5.1,0.0
3225,5.105,0.0
3226,5.105,0.0
3227,5.085,0.0
3228,5.08,0.0
3229,5.09,0.0
3230,5.09,0.0
3231,5.065,0.0
3232,5.065,0.0
3233,5.07,0.0
3234,5.065,0.0
3235,5.05,0.0
3236,5.035,0.0
3237,5.045,0.0
3238,5.045,0.0
3239,5.03,0.0
3240,5.025,0.0
3241,5.025,0.0
3242,5.04,0.0
3243,5.03,0.0
3244,5.005,0.0
3245,5.02,0.0
3246,5.02,0.0
3247,5.015,0.0
3248,4.995,0.0
3249,5.02,0.0
3250,5.025,0.0
3251,5.015,0.0
3252,4.99,0.0
3253,5.0,0.0
3254,5.015,0.0
3255,5.015,0.0
3256,4.995,0.0
3257,4.99,0.0
3258,5.005,0.0
3259,5.005,0.0
3260,4.99,0.0
3261,4.975,0.0
3262,5.0,0.0
3263,5.0,0.0
3264,4.985,0.0
3265,4.985,0.0
3266,4.985,0.0
3267,4.995,0.0
3268,4.99,0.0
3269,4.98,0.0
3270,4.985,0.0
3271,4.995,0.0
3272,4.985,0.0
3273,4.96,0.0
3274,4.975,0.0
3275,4.97,0.0
3276,4.98,0.0
3277,4.965,0.0
3278,4.97,0.0
3279,4.985,0.0
3280,4.985,0.0
3281,4.97,0.0
3282,4.965,0.0
3283,4.985,0.0
3284,4.995,0.0
3285,5.0,0.0
3286,5.045,0.0
3287,5.3,0.0
3288,5.795,0.0
3289,5.955,0.0
3290,5.61,0.0
3291,5.435,0.0
3292,5.395,0.0
3293,5.33,0.0
3294,5.28,0.0
3295,5.24,0.0
3296,5.135,0.0
3297,4.965,0.0
3298,4.72,0.0
3299,4.43,0.0
3300,4.335,0.0
3301,3.8,0.0
3302,3.47,0.0
3303,3.175,0.0
3304,2.97,0.0
3305,2.79,0.0
3306,2.635,0.0
3307,2.535,0.0
3308,2.445,0.0
3309,2.32,0.0
3310,2.225,0.0
3311,2.16,0.0
3312,2.15,0.0
3313,2.12,0.0
3314,2.095,0.0
3315,2.08,0.0
3316,2.08,0.0
3317,2.085,0.0
3318,2.09,0.0
3319,2.095,0.0
3320,2.13,0.0
3321,2.195,0.0
3322,2.26,0.0
3323,2.375,0.0
3324,2.555,0.0
3325,2.61,0.0
3326,2.975,0.0
3327,3.255,0.0
3328,3.575,0.0
3329,3.88,0.0
3330,4.175,0.0
3331,4.465,0.0
3332,4.745,0.0
3333,4.99,0.0
3334,5.2,0.0
3335,5.37,0.0
3336,5.54,0.0
3337,5.7,0.0
3338,5.795,0.0
3339,5.85,0.0
3340,5.91,0.0
3341,5.965,0.0
3342,6.01,0.0
3343,6.04,0.0
3344,6.065,0.0
3345,6.11,0.0
3346,6.155,0.0
3347,6.17,0.0
3348,6.2,0.0
3349,6.24,0.0
3350,6.26,0.0
3351,6.32,0.0
3352,6.34,0.0
3353,6.38,0.0
3354,6.42,0.0
3355,6.46,0.0
3356,6.48,0.0
3357,6.52,0.0
3358,6.585,0.0
3359,6.625,0.0
3360,6.66,0.0
3361,6.695,0.0
3362,6.745,0.0
3363,6.8,0.0
3364,6.815,0.0
3365,6.86,0.0
3366,6.91,0.0
3367,6.95,0.0
3368,6.97,0.0
3369,7.0,0.0
3370,7.05,0.0
3371,7.05,0.0
3372,7.07,0.0
3373,7.06,0.0
3374,7.07,0.0
3375,7.075,0.0
3376,7.055,0.0
3377,7.03,0.0
3378,7.0,0.0
3379,6.985,0.0
3380,6.945,0.0
3381,6.885,0.0
3382,6.835,0.0
3383,6.78,0.0
3384,6.72,0.0
3385,6.63,0.0
3386,6.55,0.0
3387,6.48,0.0
3388,6.4,0.0
3389,6.3,0.0
3390,6.215,0.0
3391,6.145,0.0
3392,6.07,0.0
3393,5.98,0.0
3394,5.895,0.0
3395,5.83,0.0
3396,5.765,0.0
3397,5.695,0.0
3398,5.635,0.0
3399,5.6,0.0
3400,5.59,0.0
3401,5.505,0.0
3402,5.455,0.0
3403,5.415,0.0
3404,5.405,0.0
3405,5.37,0.0
3406,5.325,0.0
3407,5.305,0.0
3408,5.295,0.0
3409,5.28,0.0
3410,5.25,0.0
3411,5.235,0.0
3412,5.225,0.0
3413,5.225,0.0
3414,5.205,0.0
3415,5.195,0.0
3416,5.21,0.0
3417,5.2,0.0
3418,5.195,0.0
3419,5.175,0.0
3420,5.185,0.0
3421,5.195,0.0
3422,5.18,0.0
3423,5.17,0.0
3424,5.175,0.0
3425,5.17,0.0
3426,5.175,0.0
3427,5.165,0.0
3428,5.17,0.0
3429,5.17,0.0
3430,5.18,0.0
3431,5.165,0.0
3432,5.16,0.0
3433,5.175,0.0
3434,5.175,0.0
3435,5.165,0.0
3436,5.165,0.0
3437,5.175,0.0
3438,5.18,0.0
3439,5.185,0.0
3440,5.175,0.0
3441,5.19,0.0
3442,5.2,0.0
3443,5.2,0.0
3444,5.19,0.0
3445,5.195,0.0
3446,5.19,0.0
3447,5.185,0.0
3448,5.165,0.0
3449,5.17,0.0
3450,5.175,0.0
3451,5.14,0.0
3452,5.12,0.0
3453,5.105,0.0
3454,5.095,0.0
3455,5.075,0.0
3456,5.06,0.0
3457,5.035,0.0
3458,5.04,0.0
3459,5.035,0.0
3460,5.01,0.0
3461,5.01,0.0
3462,5.025,0.0
3463,5.04,0.0
3464,5.015,0.0
3465,5.01,0.0
3466,5.01,0.0
3467,5.02,0.0
3468,5.02,0.0
3469,5.0,0.0
3470,5.0,0.0
3471,5.01,0.0
3472,5.005,0.0
3473,4.99,0.0
3474,5.0,0.0
3475,5.01,0.0
3476,5.0,0.0
3477,4.985,0.0
3478,4.975,0.0
3479,4.995,0.0
3480,4.99,0.0
3481,4.97,0.0
3482,4.975,0.0
3483,4.975,0.0
3484,4.98,0.0
3485,4.97,0.0
3486,4.96,0.0
3487,4.975,0.0
3488,4.965,0.0
3489,4.965,0.0
3490,4.955,0.0
3491,4.97,0.0
3492,4.965,0.0
3493,4.955,0.0
3494,4.94,0.0
3495,4.965,0.0
3496,4.97,0.0
3497,4.965,0.0
3498,4.945,0.0
3499,4.955,0.0
3500,4.965,0.0
3501,4.965,0.0
3502,4.96,0.0
3503,4.96,0.0
3504,4.985,0.0
3505,5.005,0.0
3506,5.065,0.0
3507,5.395,0.0
3508,5.885,0.0
3509,5.825,0.0
3510,5.5,0.0
3511,5.38,0.0
3512,5.345,0.0
3513,5.295,0.0
3514,5.235,0.0
3515,5.155,0.0
3516,5.02,0.0
3517,4.81,0.0
3518,4.505,0.0
3519,4.155,0.0
3520,3.815,0.0
3521,3.445,0.0
3522,3.08,0.0
3523,2.82,0.0
3524,2.655,0.0
3525,2.615,0.0
3526,2.45,0.0
3527,2.335,0.0
3528,2.23,0.0
3529,2.17,0.0
3530,2.135,0.0
3531,2.09,0.0
3532,2.07,0.0
3533,2.07,0.0
3534,2.065,0.0
3535,2.04,0.0
3536,2.04,0.0
3537,2.075,0.0
3538,2.105,0.0
3539,2.16,0.0
3540,2.24,0.0
3541,2.39,0.0
3542,2.565,0.0
3543,2.75,0.0
3544,2.98,0.0
3545,3.28,0.0
3546,3.6,0.0
3547,3.905,0.0
3548,4.175,0.0
3549,4.45,0.0
3550,4.545,0.0
3551,4.94,0.0
3552,5.135,0.0
3553,5.325,0.0
3554,5.515,0.0
3555,5.665,0.0
3556,5.755,0.0
3557,5.825,0.0
3558,5.9,0.0
3559,5.945,0.0
3560,5.985,0.0
3561,6.035,0.0
3562,6.08,0.0
3563,6.125,0.0
3564,6.155,0.0
3565,6.195,0.0
3566,6.25,0.0
3567,6.3,0.0
3568,6.33,0.0
3569,6.37,0.0
3570,6.425,0.0
3571,6.48,0.0
3572,6.515,0.0
3573,6.56,0.0
3574,6.615,0.0
3575,6.635,0.0
3576,6.715,0.0
3577,6.755,0.0
3578,6.805,0.0
3579,6.85,0.0
3580,6.89,0.0
3581,6.92,0.0
3582,6.96,0.0
3583,7.0,0.0
3584,7.035,0.0
3585,7.05,0.0
3586,7.06,0.0
3587,7.08,0.0
3588,7.09,0.0
3589,7.08,0.0
3590,7.055,0.0
3591,7.045,0.0
3592,7.015,0.0
3593,6.965,0.0
3594,6.915,0.0
3595,6.865,0.0
3596,6.81,0.0
3597,6.735,0.0
3598,6.63,0.0
3599,6.575,0.0
3600,6.555,0.0
3601,6.42,0.0
3602,6.33,0.0
3603,6.255,0.0
3604,6.19,0.0
3605,6.1,0.0
3606,6.0,0.0
3607,5.925,0.0
3608,5.87,0.0
3609,5.8,0.0
3610,5.715,0.0
3611,5.66,0.0
3612,5.615,0.0
3613,5.56,0.0
3614,5.5,0.0
3615,5.465,0.0
3616,5.43,0.0
3617,5.4,0.0
3618,5.355,0.0
3619,5.31,0.0
3620,5.29,0.0
3621,5.285,0.0
3622,5.245,0.0
3623,5.215,0.0
3624,5.205,0.0
3625,5.21,0.0
3626,5.18,0.0
3627,5.15,0.0
3628,5.15,0.0
3629,5.145,0.0
3630,5.145,0.0
3631,5.125,0.0
3632,5.12,0.0
3633,5.13,0.0
3634,5.125,0.0
3635,5.105,0.0
3636,5.09,0.0
3637,5.115,0.0
3638,5.1,0.0
3639,5.08,0.0
3640,5.095,0.0
3641,5.09,0.0
3642,5.1,0.0
3643,5.105,0.0
3644,5.09,0.0
3645,5.1,0.0
3646,5.1,0.0
3647,5.095,0.0
3648,5.085,0.0
3649,5.095,0.0
3650,5.1,0.0
3651,5.105,0.0
3652,5.09,0.0
3653,5.085,0.0
3654,5.1,0.0
3655,5.09,0.0
3656,5.08,0.0
3657,5.085,0.0
3658,5.085,0.0
3659,5.08,0.0
3660,5.065,0.0
3661,5.06,0.0
3662,5.07,0.0
3663,5.07,0.0
3664,5.06,0.0
3665,5.04,0.0
3666,5.045,0.0
3667,5.04,0.0
3668,5.045,0.0
3669,5.02,0.0
3670,5.025,0.0
3671,5.035,0.0
3672,5.025,0.0
3673,5.01,0.0
3674,5.0,0.0
3675,5.01,0.0
3676,5.01,0.0
3677,4.995,0.0
3678,4.985,0.0
3679,4.995,0.0
3680,4.995,0.0
3681,4.985,0.0
3682,4.975,0.0
3683,4.98,0.0
3684,4.995,0.0
3685,4.975,0.0
3686,4.98,0.0
3687,4.99,0.0
3688,5.005,0.0
3689,4.995,0.0
3690,5.0,0.0
3691,5.02,0.0
3692,5.015,0.0
3693,5.02,0.0
3694,5.0,0.0
3695,5.01,0.0
3696,5.005,0.0
3697,4.98,0.0
3698,4.955,0.0
3699,4.955,0.0
3700,4.96,0.0
3701,4.935,0.0
3702,4.92,0.0
3703,4.9,0.0
3704,4.905,0.0
3705,4.9,0.0
3706,4.875,0.0
3707,4.885,0.0
3708,4.905,0.0
3709,4.915,0.0
3710,4.91,0.0
3711,4.905,0.0
3712,4.915,0.0
3713,4.925,0.0
3714,4.925,0.0
3715,4.96,0.0
3716,5.07,0.0
3717,5.5,0.0
3718,5.955,0.0
3719,5.75,0.0
3720,5.445,0.0
3721,5.365,0.0
3722,5.315,0.0
3723,5.255,0.0
3724,5.205,0.0
3725,5.185,0.0
3726,4.94,0.0
3727,4.665,0.0
3728,4.375,0.0
3729,4.085,0.0
3730,3.785,0.0
3731,3.485,0.0
3732,3.275,0.0
3733,3.125,0.0
3734,2.995,0.0
3735,2.835,0.0
3736,2.67,0.0
3737,2.515,0.0
3738,2.375,0.0
3739,2.29,0.0
3740,2.23,0.0
3741,2.18,0.0
3742,2.14,0.0
3743,2.1,0.0
3744,2.075,0.0
3745,2.07,0.0
3746,2.075,0.0
3747,2.105,0.0
3748,2.165,0.0
3749,2.31,0.0
3750,2.355,0.0
3751,2.665,0.0
3752,2.86,0.0
3753,3.16,0.0
3754,3.495,0.0
3755,3.815,0.0
3756,4.115,0.0
3757,4.41,0.0
3758,4.715,0.0
3759,4.965,0.0
3760,5.135,0.0
3761,5.335,0.0
3762,5.51,0.0
3763,5.635,0.0
3764,5.705,0.0
3765,5.765,0.0
3766,5.83,0.0
3767,5.885,0.0
3768,5.93,0.0
3769,5.96,0.0
3770,6.02,0.0
3771,6.065,0.0
3772,6.09,0.0
3773,6.13,0.0
3774,6.175,0.0
3775,6.195,0.0
3776,6.27,0.0
3777,6.3,0.0
3778,6.36,0.0
3779,6.41,0.0
3780,6.46,0.0
3781,6.49,0.0
3782,6.55,0.0
3783,6.61,0.0
3784,6.65,0.0
3785,6.68,0.0
3786,6.725,0.0
3787,6.785,0.0
3788,6.825,0.0
3789,6.86,0.0
3790,6.885,0.0
3791,6.935,0.0
3792,6.96,0.0
3793,6.965,0.0
3794,6.975,0.0
3795,6.98,0.0
3796,6.985,0.0
3797,6.95,0.0
3798,6.92,0.0
3799,6.89,0.0
3800,6.88,0.0
3801,6.785,0.0
3802,6.705,0.0
3803,6.655,0.0
3804,6.595,0.0
3805,6.51,0.0
3806,6.425,0.0
3807,6.345,0.0
3808,6.275,0.0
3809,6.19,0.0
3810,6.09,0.0
3811,6.005,0.0
3812,5.935,0.0
3813,5.86,0.0
3814,5.77,0.0
3815,5.705,0.0
3816,5.645,0.0
3817,5.59,0.0
3818,5.535,0.0
3819,5.475,0.0
3820,5.45,0.0
3821,5.41,0.0
3822,5.36,0.0
3823,5.32,0.0
3824,5.3,0.0
3825,5.295,0.0
3826,5.25,0.0
3827,5.21,0.0
3828,5.2,0.0
3829,5.205,0.0
3830,5.18,0.0
3831,5.155,0.0
3832,5.145,0.0
3833,5.15,0.0
3834,5.15,0.0
3835,5.135,0.0
3836,5.125,0.0
3837,5.125,0.0
3838,5.125,0.0
3839,5.105,0.0
3840,5.1,0.0
3841,5.12,0.0
3842,5.115,0.0
3843,5.11,0.0
3844,5.09,0.0
3845,5.105,0.0
3846,5.12,0.0
3847,5.12,0.0
3848,5.1,0.0
3849,5.115,0.0
3850,5.12,0.0
3851,5.12,0.0
3852,5.115,0.0
3853,5.115,0.0
3854,5.125,0.0
3855,5.125,0.0
3856,5.11,0.0
3857,5.115,0.0
3858,5.12,0.0
3859,5.125,0.0
3860,5.105,0.0
3861,5.105,0.0
3862,5.105,0.0
3863,5.11,0.0
3864,5.105,0.0
3865,5.085,0.0
3866,5.09,0.0
3867,5.09,0.0
3868,5.08,0.0
3869,5.065,0.0
3870,5.07,0.0
3871,5.085,0.0
3872,5.06,0.0
3873,5.035,0.0
3874,5.045,0.0
3875,5.04,0.0
3876,5.035,0.0
3877,5.015,0.0
3878,5.01,0.0
3879,5.015,0.0
3880,5.02,0.0
3881,5.0,0.0
3882,5.005,0.0
3883,5.005,0.0
3884,5.005,0.0
3885,5.0,0.0
3886,4.99,0.0
3887,4.99,0.0
3888,4.995,0.0
3889,4.975,0.0
3890,4.97,0.0
3891,4.985,0.0
3892,4.975,0.0
3893,4.97,0.0
3894,4.965,0.0
3895,4.975,0.0
3896,4.98,0.0
3897,4.97,0.0
3898,4.945,0.0
3899,4.95,0.0
3900,4.96,0.0
3901,4.955,0.0
3902,4.955,0.0
3903,4.955,0.0
3904,4.95,0.0
3905,4.955,0.0
3906,4.94,0.0
3907,4.945,0.0
3908,4.96,0.0
3909,4.96,0.0
3910,4.94,0.0
3911,4.93,0.0
3912,4.95,0.0
3913,4.955,0.0
3914,4.94,0.0
3915,4.94,0.0
3916,4.975,0.0
3917,4.99,0.0
3918,5.02,0.0
3919,5.225,0.0
3920,5.705,0.0
3921,6.01,0.0
3922,5.745,0.0
3923,5.46,0.0
3924,5.41,0.0
3925,5.4,0.0
3926,5.305,0.0
3927,5.24,0.0
3928,5.135,0.0
3929,4.96,0.0
3930,4.68,0.0
3931,4.325,0.0
3932,3.97,0.0
3933,3.625,0.0
3934,3.28,0.0
3935,2.98,0.0
3936,2.745,0.0
3937,2.575,0.0
3938,2.455,0.0
3939,2.31,0.0
3940,2.185,0.0
3941,2.13,0.0
3942,2.085,0.0
3943,2.05,0.0
3944,2.03,0.0
3945,2.025,0.0
3946,2.025,0.0
3947,2.03,0.0
3948,2.02,0.0
3949,2.04,0.0
3950,2.055,0.0
3951,2.14,0.0
3952,2.245,0.0
3953,2.43,0.0
3954,2.64,0.0
3955,2.885,0.0
3956,3.155,0.0
3957,3.47,0.0
3958,3.795,0.0
3959,4.105,0.0
3960,4.4,0.0
3961,4.68,0.0
3962,4.935,0.0
3963,5.14,0.0
3964,5.335,0.0
3965,5.505,0.0
3966,5.65,0.0
3967,5.72,0.0
3968,5.78,0.0
3969,5.82,0.0
3970,5.88,0.0
3971,5.925,0.0
3972,5.965,0.0
3973,5.995,0.0
3974,6.04,0.0
3975,6.06,0.0
3976,6.13,0.0
3977,6.14,0.0
3978,6.2,0.0
3979,6.25,0.0
3980,6.285,0.0
3981,6.315,0.0
3982,6.365,0.0
3983,6.415,0.0
3984,6.465,0.0
3985,6.49,0.0
3986,6.535,0.0
3987,6.6,0.0
3988,6.65,0.0
3989,6.67,0.0
3990,6.715,0.0
3991,6.775,0.0
3992,6.82,0.0
3993,6.845,0.0
3994,6.87,0.0
3995,6.91,0.0
3996,6.945,0.0
3997,6.96,0.0
3998,6.955,0.0
3999,6.965,0.0
4000,6.97,0.0
4001,6.955,0.0
4002,6.92,0.0
4003,6.9,0.0
4004,6.865,0.0
4005,6.81,0.0
4006,6.735,0.0
4007,6.67,0.0
4008,6.61,0.0
4009,6.535,0.0
4010,6.43,0.0
4011,6.335,0.0
4012,6.25,0.0
4013,6.17,0.0
4014,6.075,0.0
4015,5.98,0.0
4016,5.91,0.0
4017,5.83,0.0
4018,5.75,0.0
4019,5.67,0.0
4020,5.605,0.0
4021,5.55,0.0
4022,5.485,0.0
4023,5.42,0.0
4024,5.395,0.0
4025,5.385,0.0
4026,5.325,0.0
4027,5.275,0.0
4028,5.265,0.0
4029,5.25,0.0
4030,5.23,0.0
4031,5.205,0.0
4032,5.19,0.0
4033,5.195,0.0
4034,5.2,0.0
4035,5.18,0.0
4036,5.165,0.0
4037,5.175,0.0
4038,5.175,0.0
4039,5.17,0.0
4040,5.16,0.0
4041,5.17,0.0
4042,5.17,0.0
4043,5.16,0.0
4044,5.15,0.0
4045,5.16,0.0
4046,5.17,0.0
4047,5.155,0.0
4048,5.16,0.0
4049,5.155,0.0
4050,5.16,0.0
4051,5.165,0.0
4052,5.14,0.0
4053,5.145,0.0
4054,5.16,0.0
4055,5.155,0.0
4056,5.14,0.0
4057,5.15,0.0
4058,5.145,0.0
4059,5.14,0.0
4060,5.115,0.0
4061,5.12,0.0
4062,5.125,0.0
4063,5.13,0.0
4064,5.11,0.0
4065,5.09,0.0
4066,5.1,0.0
4067,5.09,0.0
4068,5.08,0.0
4069,5.06,0.0
4070,5.065,0.0
4071,5.075,0.0
4072,5.06,0.0
4073,5.035,0.0
4074,5.045,0.0
4075,5.05,0.0
4076,5.045,0.0
4077,5.03,0.0
4078,5.025,0.0
4079,5.03,0.0
4080,5.03,0.0
4081,5.015,0.0
4082,5.015,0.0
4083,5.01,0.0
4084,5.02,0.0
4085,4.99,0.0
4086,4.995,0.0
4087,5.0,0.0
4088,5.015,0.0
4089,4.99,0.0
4090,4.975,0.0
4091,4.995,0.0
4092,4.99,0.0
4093,4.98,0.0
4094,4.965,0.0
4095,4.985,0.0
4096,4.985,0.0
4097,4.975,0.0
4098,4.96,0.0
4099,4.975,0.0
4100,4.975,0.0
4101,4.97,0.0
4102,4.955,0.0
4103,4.955,0.0
4104,4.965,0.0
4105,4.97,0.0
4106,4.95,0.0
4107,4.96,0.0
4108,4.97,0.0
4109,4.965,0.0
4110,4.955,0.0
4111,4.955,0.0
4112,4.965,0.0
4113,4.965,0.0
4114,4.95,0.0
4115,4.945,0.0
4116,4.965,0.0
4117,4.975,0.0
4118,4.99,0.0
4119,5.13,0.0
4120,5.575,0.0
4121,5.89,0.0
4122,5.625,0.0
4123,5.38,0.0
4124,5.34,0.0
4125,5.325,0.0
4126,5.235,0.0
4127,5.145,0.0
4128,5.02,0.0
4129,4.805,0.0
4130,4.47,0.0
4131,4.105,0.0
4132,3.735,0.0
4133,3.365,0.0
4134,3.03,0.0
4135,2.78,0.0
4136,2.58,0.0
4137,2.475,0.0
4138,2.375,0.0
4139,2.235,0.0
4140,2.155,0.0
4141,2.125,0.0
4142,2.1,0.0
4143,2.075,0.0
4144,2.045,0.0
4145,2.06,0.0
4146,2.055,0.0
4147,2.065,0.0
4148,2.07,0.0
4149,2.105,0.0
4150,2.12,0.0
4151,2.275,0.0
4152,2.43,0.0
4153,2.65,0.0
4154,2.91,0.0
4155,3.225,0.0
4156,3.54,0.0
4157,3.88,0.0
4158,4.2,0.0
4159,4.525,0.0
4160,4.79,0.0
4161,5.035,0.0
4162,5.255,0.0
4163,5.465,0.0
4164,5.62,0.0
4165,5.71,0.0
4166,5.79,0.0
4167,5.85,0.0
4168,5.88,0.0
4169,5.925,0.0
4170,5.975,0.0
4171,6.02,0.0
4172,6.04,0.0
4173,6.065,0.0
4174,6.105,0.0
4175,6.12,0.0
4176,6.16,0.0
4177,6.175,0.0
4178,6.22,0.0
4179,6.25,0.0
4180,6.29,0.0
4181,6.305,1.0
4182,6.345,1.0
4183,6.395,1.0
4184,6.44,1.0
4185,6.46,1.0
4186,6.515,1.0
4187,6.56,1.0
4188,6.6,1.0
4189,6.635,1.0
4190,6.67,1.0
4191,6.715,1.0
4192,6.75,1.0
4193,6.77,1.0
4194,6.805,1.0
4195,6.845,1.0
4196,6.86,1.0
4197,6.89,1.0
4198,6.895,1.0
4199,6.9,1.0
4200,6.905,1.0
4201,6.89,1.0
4202,6.86,1.0
4203,6.825,1.0
4204,6.785,1.0
4205,6.73,1.0
4206,6.645,1.0
4207,6.57,1.0
4208,6.505,1.0
4209,6.41,1.0
4210,6.31,1.0
4211,6.225,1.0
4212,6.135,1.0
4213,6.045,1.0
4214,5.935,1.0
4215,5.85,1.0
4216,5.775,1.0
4217,5.72,1.0
4218,5.65,1.0
4219,5.57,1.0
4220,5.53,1.0
4221,5.48,1.0
4222,5.425,1.0
4223,5.38,1.0
4224,5.35,1.0
4225,5.345,1.0
4226,5.305,1.0
4227,5.275,1.0
4228,5.25,1.0
4229,5.26,1.0
4230,5.245,1.0
4231,5.215,1.0
4232,5.22,1.0
4233,5.225,1.0
4234,5.22,1.0
4235,5.2,1.0
4236,5.19,1.0
4237,5.205,1.0
4238,5.205,1.0
4239,5.185,1.0
4240,5.19,1.0
4241,5.195,1.0
4242,5.185,1.0
4243,5.155,1.0
4244,5.13,1.0
4245,5.1,1.0
4246,5.075,1.0
4247,5.03,1.0
4248,4.995,1.0
4249,5.005,1.0
4250,5.015,1.0
4251,5.06,1.0
4252,5.14,1.0
4253,5.31,1.0
4254,5.525,1.0
4255,5.72,1.0
4256,5.88,1.0
4257,6.095,1.0
4258,6.365,1.0
4259,6.63,1.0
4260,6.865,1.0
4261,7.105,1.0
4262,7.345,1.0
4263,7.53,1.0
4264,7.63,1.0
4265,7.645,1.0
4266,7.605,1.0
4267,7.38,1.0
4268,6.875,1.0
4269,6.06,1.0
4270,5.345,1.0
4271,5.035,1.0
4272,4.955,1.0
4273,4.84,1.0
4274,4.69,1.0
4275,4.655,1.0
4276,4.54,1.0
4277,4.49,1.0
4278,4.46,1.0
4279,4.435,1.0
4280,4.385,1.0
4281,4.335,1.0
4282,4.31,1.0
4283,4.285,1.0
4284,4.265,1.0
4285,4.21,1.0
4286,4.19,1.0
4287,4.18,1.0
4288,4.155,1.0
4289,4.125,1.0
4290,4.095,1.0
4291,4.085,1.0
4292,4.07,1.0
4293,4.035,1.0
4294,4.01,1.0
4295,4.0,1.0
4296,3.975,1.0
4297,3.945,1.0
4298,3.9,1.0
4299,3.905,1.0
4300,3.895,1.0
4301,3.855,1.0
4302,3.81,1.0
4303,3.81,1.0
4304,3.795,1.0
4305,3.77,1.0
4306,3.74,1.0
4307,3.72,1.0
4308,3.715,1.0
4309,3.705,1.0
4310,3.675,1.0
4311,3.665,1.0
4312,3.68,1.0
4313,3.675,1.0
4314,3.665,1.0
4315,3.675,1.0
4316,3.695,1.0
4317,3.715,1.0
4318,3.725,1.0
4319,3.75,1.0
4320,3.8,1.0
4321,3.85,1.0
4322,3.895,1.0
4323,3.95,1.0
4324,4.03,1.0
4325,4.06,1.0
4326,4.185,1.0
4327,4.255,1.0
4328,4.36,1.0
4329,4.455,1.0
4330,4.54,1.0
4331,4.605,1.0
4332,4.685,1.0
4333,4.765,1.0
4334,4.83,1.0
4335,4.865,1.0
4336,4.91,1.0
4337,4.955,1.0
4338,4.975,1.0
4339,4.98,1.0
4340,5.005,1.0
4341,5.04,1.0
4342,5.04,1.0
4343,5.05,1.0
4344,5.035,1.0
4345,5.06,1.0
4346,5.07,1.0
4347,5.06,1.0
4348,5.05,1.0
4349,5.065,1.0
4350,5.07,1.0
4351,5.07,1.0
4352,5.06,1.0
4353,5.065,1.0
4354,5.075,1.0
4355,5.075,1.0
4356,5.065,1.0
4357,5.07,1.0
4358,5.075,1.0
4359,5.08,1.0
4360,5.065,1.0
4361,5.065,1.0
4362,5.08,1.0
4363,5.095,1.0
4364,5.095,1.0
4365,5.1,1.0
4366,5.11,1.0
4367,5.115,1.0
4368,5.105,1.0
4369,5.105,1.0
4370,5.11,1.0
4371,5.12,1.0
4372,5.1,1.0
4373,5.06,1.0
4374,5.07,1.0
4375,5.065,1.0
4376,5.05,1.0
4377,5.02,1.0
4378,5.02,1.0
4379,5.02,1.0
4380,5.015,1.0
4381,4.995,1.0
4382,4.98,1.0
4383,5.0,1.0
4384,5.005,1.0
4385,5.005,1.0
4386,5.02,1.0
4387,5.03,1.0
4388,5.035,1.0
4389,5.01,1.0
4390,5.015,1.0
4391,5.035,1.0
4392,5.04,1.0
4393,5.025,1.0
4394,5.015,1.0
4395,5.02,1.0
4396,5.04,1.0
4397,5.025,1.0
4398,5.025,1.0
4399,5.035,1.0
4400,5.04,1.0
4401,5.035,1.0
4402,5.03,1.0
4403,5.025,1.0
4404,5.045,1.0
4405,5.045,1.0
4406,5.03,1.0
4407,5.03,1.0
4408,5.05,1.0
4409,5.045,1.0
4410,5.04,1.0
4411,5.04,1.0
4412,5.045,1.0
4413,5.055,1.0
4414,5.05,1.0
4415,5.05,1.0
4416,5.045,1.0
4417,5.055,1.0
4418,5.055,1.0
4419,5.045,0.0
4420,5.055,0.0
4421,5.07,0.0
4422,5.06,0.0
4423,5.045,0.0
4424,5.06,0.0
4425,5.06,0.0
4426,5.075,0.0
4427,5.065,0.0
4428,5.07,0.0
4429,5.085,0.0
4430,5.08,0.0
4431,5.065,0.0
4432,5.075,0.0
4433,5.085,0.0
4434,5.09,0.0
4435,5.075,0.0
4436,5.085,0.0
4437,5.085,0.0
4438,5.09,0.0
4439,5.085,0.0
4440,5.075,0.0
4441,5.085,0.0
4442,5.095,0.0
4443,5.09,0.0
4444,5.075,0.0
4445,5.085,0.0
4446,5.1,0.0
4447,5.095,0.0
4448,5.08,0.0
4449,5.095,0.0
4450,5.1,0.0
4451,5.1,0.0
4452,5.085,0.0
4453,5.1,0.0
4454,5.095,0.0
4455,5.095,0.0
4456,5.075,0.0
4457,5.09,0.0
4458,5.1,0.0
4459,5.1,0.0
4460,5.08,0.0
4461,5.085,0.0
4462,5.1,0.0
4463,5.1,0.0
4464,5.085,0.0
4465,5.095,0.0
4466,5.105,0.0
4467,5.14,0.0
4468,5.205,0.0
4469,5.52,0.0
4470,6.075,0.0
4471,6.105,0.0
4472,5.73,0.0
4473,5.545,0.0
4474,5.505,0.0
4475,5.49,0.0
4476,5.385,0.0
4477,5.275,0.0
4478,5.115,0.0
4479,4.87,0.0
4480,4.54,0.0
4481,4.18,0.0
4482,3.845,0.0
4483,3.525,0.0
4484,3.23,0.0
4485,3.02,0.0
4486,2.88,0.0
4487,2.795,0.0
4488,2.69,0.0
4489,2.55,0.0
4490,2.43,0.0
4491,2.38,0.0
4492,2.35,0.0
4493,2.29,0.0
4494,2.255,0.0
4495,2.255,0.0
4496,2.245,0.0
4497,2.255,0.0
4498,2.25,0.0
4499,2.32,0.0
4500,2.345,0.0
4501,2.545,0.0
4502,2.705,0.0
4503,2.9,0.0
4504,3.125,0.0
4505,3.395,0.0
4506,3.69,0.0
4507,4.015,0.0
4508,4.315,0.0
4509,4.625,0.0
4510,4.885,0.0
4511,5.125,0.0
4512,5.325,0.0
4513,5.505,0.0
4514,5.665,0.0
4515,5.81,0.0
4516,5.92,0.0
4517,6.0,0.0
4518,6.05,0.0
4519,6.1,0.0
4520,6.17,0.0
4521,6.225,0.0
4522,6.27,0.0
4523,6.32,0.0
4524,6.38,0.0
4525,6.4,0.0
4526,6.49,0.0
4527,6.53,0.0
4528,6.595,0.0
4529,6.665,0.0
4530,6.715,0.0
4531,6.76,0.0
4532,6.825,0.0
4533,6.89,0.0
4534,6.945,0.0
4535,6.995,0.0
4536,7.04,0.0
4537,7.105,0.0
4538,7.155,0.0
4539,7.195,0.0
4540,7.235,0.0
4541,7.295,0.0
4542,7.32,0.0
4543,7.345,0.0
4544,7.37,0.0
4545,7.395,0.0
4546,7.415,0.0
4547,7.415,0.0
4548,7.395,0.0
4549,7.4,0.0
4550,7.405,0.0
4551,7.365,0.0
4552,7.315,0.0
4553,7.28,0.0
4554,7.245,0.0
4555,7.19,0.0
4556,7.115,0.0
4557,7.05,0.0
4558,6.995,0.0
4559,6.92,0.0
4560,6.825,0.0
4561,6.73,0.0
4562,6.665,0.0
4563,6.575,0.0
4564,6.48,0.0
4565,6.405,0.0
4566,6.33,0.0
4567,6.245,0.0
4568,6.165,0.0
4569,6.075,0.0
4570,6.02,0.0
4571,5.94,0.0
4572,5.875,0.0
4573,5.81,0.0
4574,5.75,0.0
4575,5.735,0.0
4576,5.65,0.0
4577,5.58,0.0
4578,5.545,0.0
4579,5.515,0.0
4580,5.475,0.0
4581,5.435,0.0
4582,5.405,0.0
4583,5.39,0.0
4584,5.36,0.0
4585,5.32,0.0
4586,5.305,0.0
4587,5.305,0.0
4588,5.295,0.0
4589,5.265,0.0
4590,5.25,0.0
4591,5.255,0.0
4592,5.25,0.0
4593,5.235,0.0
4594,5.225,0.0
4595,5.235,0.0
4596,5.24,0.0
4597,5.23,0.0
4598,5.22,0.0
4599,5.245,0.0
4600,5.25,0.0
4601,5.255,0.0
4602,5.25,0.0
4603,5.265,0.0
4604,5.28,0.0
4605,5.275,0.0
4606,5.27,0.0
4607,5.275,0.0
4608,5.29,0.0
4609,5.29,0.0
4610,5.275,0.0
4611,5.27,0.0
4612,5.27,0.0
4613,5.26,0.0
4614,5.235,0.0
4615,5.225,0.0
4616,5.215,0.0
4617,5.2,0.0
4618,5.185,0.0
4619,5.155,0.0
4620,5.165,0.0
4621,5.155,0.0
4622,5.145,0.0
4623,5.14,0.0
4624,5.16,0.0
4625,5.17,0.0
4626,5.15,0.0
4627,5.14,0.0
4628,5.13,0.0
4629,5.13,0.0
4630,5.115,0.0
4631,5.105,0.0
4632,5.105,0.0
4633,5.105,0.0
4634,5.11,0.0
4635,5.09,0.0
4636,5.08,0.0
4637,5.095,0.0
4638,5.08,0.0
4639,5.07,0.0
4640,5.06,0.0
4641,5.06,0.0
4642,5.055,0.0
4643,5.045,0.0
4644,5.035,0.0
4645,5.04,0.0
4646,5.04,0.0
4647,5.035,0.0
4648,5.02,0.0
4649,5.025,0.0
4650,5.03,0.0
4651,5.025,0.0
4652,5.01,0.0
4653,5.015,0.0
4654,5.02,0.0
4655,5.015,0.0
4656,5.01,0.0
4657,5.015,0.0
4658,5.025,0.0
4659,5.02,0.0
4660,5.01,0.0
4661,5.0,0.0
4662,5.02,0.0
4663,5.01,0.0
4664,5.005,0.0
4665,5.0,0.0
4666,5.015,0.0
4667,5.015,0.0
4668,5.015,0.0
4669,5.005,0.0
4670,5.015,0.0
4671,5.035,0.0
4672,5.035,0.0
4673,5.04,0.0
4674,5.19,0.0
4675,5.275,0.0
4676,5.91,0.0
4677,5.625,0.0
4678,5.415,0.0
4679,5.37,0.0
4680,5.32,0.0
4681,5.25,0.0
4682,5.165,0.0
4683,5.035,0.0
4684,4.805,0.0
4685,4.46,0.0
4686,4.08,0.0
4687,3.725,0.0
4688,3.33,0.0
4689,2.965,0.0
4690,2.725,0.0
4691,2.58,0.0
4692,2.475,0.0
4693,2.375,0.0
4694,2.26,0.0
4695,2.185,0.0
4696,2.14,0.0
4697,2.11,0.0
4698,2.08,0.0
4699,2.07,0.0
4700,2.085,0.0
4701,2.075,0.0
4702,2.065,0.0
4703,2.075,0.0
4704,2.12,0.0
4705,2.19,0.0
4706,2.28,0.0
4707,2.445,0.0
4708,2.65,0.0
4709,2.875,0.0
4710,3.155,0.0
4711,3.51,0.0
4712,3.85,0.0
4713,4.145,0.0
4714,4.43,0.0
4715,4.72,0.0
4716,4.985,0.0
4717,5.185,0.0
4718,5.35,0.0
4719,5.52,0.0
4720,5.69,0.0
4721,5.78,0.0
4722,5.835,0.0
4723,5.88,0.0
4724,5.945,0.0
4725,5.965,0.0
4726,6.03,0.0
4727,6.065,0.0
4728,6.105,0.0
4729,6.16,0.0
4730,6.195,0.0
4731,6.23,0.0
4732,6.265,0.0
4733,6.32,0.0
4734,6.375,0.0
4735,6.405,0.0
4736,6.445,0.0
4737,6.5,0.0
4738,6.545,0.0
4739,6.585,0.0
4740,6.63,0.0
4741,6.705,0.0
4742,6.735,0.0
4743,6.765,0.0
4744,6.81,0.0
4745,6.865,0.0
4746,6.91,0.0
4747,6.935,0.0
4748,6.955,0.0
4749,6.985,0.0
4750,6.99,0.0
4751,7.015,0.0
4752,7.02,0.0
4753,7.03,0.0
4754,7.02,0.0
4755,7.005,0.0
4756,6.96,0.0
4757,6.925,0.0
4758,6.88,0.0
4759,6.825,0.0
4760,6.74,0.0
4761,6.67,0.0
4762,6.6,0.0
4763,6.525,0.0
4764,6.425,0.0
4765,6.34,0.0
4766,6.27,0.0
4767,6.165,0.0
4768,6.08,0.0
4769,6.0,0.0
4770,5.925,0.0
4771,5.87,0.0
4772,5.78,0.0
4773,5.7,0.0
4774,5.65,0.0
4775,5.635,0.0
4776,5.53,0.0
4777,5.47,0.0
4778,5.435,0.0
4779,5.4,0.0
4780,5.355,0.0
4781,5.32,0.0
4782,5.29,0.0
4783,5.27,0.0
4784,5.245,0.0
4785,5.205,0.0
4786,5.19,0.0
4787,5.19,0.0
4788,5.18,0.0
4789,5.155,0.0
4790,5.135,0.0
4791,5.135,0.0
4792,5.135,0.0
4793,5.11,0.0
4794,5.1,0.0
4795,5.105,0.0
4796,5.115,0.0
4797,5.1,0.0
4798,5.085,0.0
4799,5.1,0.0
4800,5.105,0.0
4801,5.1,0.0
4802,5.075,0.0
4803,5.08,0.0
4804,5.095,0.0
4805,5.095,0.0
4806,5.08,0.0
4807,5.085,0.0
4808,5.09,0.0
4809,5.095,0.0
4810,5.1,0.0
4811,5.1,0.0
4812,5.1,0.0
4813,5.1,0.0
4814,5.08,0.0
4815,5.075,0.0
4816,5.09,0.0
4817,5.085,0.0
4818,5.08,0.0
4819,5.07,0.0
4820,5.075,0.0
4821,5.085,0.0
4822,5.07,0.0
4823,5.065,0.0
4824,5.055,0.0
4825,5.055,0.0
4826,5.065,0.0
4827,5.045,0.0
4828,5.03,0.0
4829,5.03,0.0
4830,5.025,0.0
4831,5.02,0.0
4832,5.01,0.0
4833,5.01,0.0
4834,5.01,0.0
4835,4.99,0.0
4836,4.98,0.0
4837,5.0,0.0
4838,5.0,0.0
4839,4.985,0.0
4840,4.98,0.0
4841,4.98,0.0
4842,4.99,0.0
4843,4.975,0.0
4844,4.98,0.0
4845,4.99,0.0
4846,5.01,0.0
4847,5.005,0.0
4848,4.99,0.0
4849,5.01,0.0
4850,5.015,0.0
4851,5.025,0.0
4852,5.0,0.0
4853,4.995,0.0
4854,5.01,0.0
4855,5.005,0.0
4856,4.985,0.0
4857,4.97,0.0
4858,4.975,0.0
4859,4.965,0.0
4860,4.945,0.0
4861,4.94,0.0
4862,4.955,0.0
4863,4.94,0.0
4864,4.925,0.0
4865,4.895,0.0
4866,4.9,0.0
4867,4.895,0.0
4868,4.885,0.0
4869,4.895,0.0
4870,4.92,0.0
4871,4.925,0.0
4872,4.92,0.0
4873,4.91,0.0
4874,4.92,0.0
4875,4.925,0.0
4876,4.925,0.0
4877,4.915,0.0
4878,4.915,0.0
4879,4.925,0.0
4880,4.935,0.0
4881,4.925,0.0
4882,4.935,0.0
4883,4.97,0.0
4884,5.035,0.0
4885,5.26,0.0
4886,5.73,0.0
4887,5.935,0.0
4888,5.645,0.0
4889,5.42,0.0
4890,5.355,0.0
4891,5.325,0.0
4892,5.3,0.0
4893,5.245,0.0
4894,5.175,0.0
4895,5.075,0.0
4896,4.905,0.0
4897,4.66,0.0
4898,4.395,0.0
4899,4.165,0.0
4900,4.095,0.0
4901,3.63,0.0
4902,3.415,0.0
4903,3.245,0.0
4904,3.085,0.0
4905,2.94,0.0
4906,2.78,0.0
4907,2.61,0.0
4908,2.485,0.0
4909,2.365,0.0
4910,2.29,0.0
4911,2.235,0.0
4912,2.185,0.0
4913,2.14,0.0
4914,2.105,0.0
4915,2.08,0.0
4916,2.095,0.0
4917,2.095,0.0
4918,2.095,0.0
4919,2.135,0.0
4920,2.21,0.0
4921,2.315,0.0
4922,2.475,0.0
4923,2.65,0.0
4924,2.855,0.0
4925,2.925,0.0
4926,3.395,0.0
4927,3.665,0.0
4928,3.96,0.0
4929,4.235,0.0
4930,4.5,0.0
4931,4.755,0.0
4932,4.99,0.0
4933,5.185,0.0
4934,5.355,0.0
4935,5.5,0.0
4936,5.63,0.0
4937,5.72,0.0
4938,5.785,0.0
4939,5.82,0.0
4940,5.86,0.0
4941,5.925,0.0
4942,5.955,0.0
4943,5.995,0.0
4944,6.02,0.0
4945,6.07,0.0
4946,6.11,0.0
4947,6.14,0.0
4948,6.155,0.0
4949,6.205,0.0
4950,6.22,0.0
4951,6.285,0.0
4952,6.325,0.0
4953,6.38,0.0
4954,6.425,0.0
4955,6.47,0.0
4956,6.505,0.0
4957,6.545,0.0
4958,6.605,0.0
4959,6.65,0.0
4960,6.685,0.0
4961,6.73,0.0
4962,6.79,0.0
4963,6.825,0.0
4964,6.85,0.0
4965,6.885,0.0
4966,6.925,0.0
4967,6.94,0.0
4968,6.945,0.0
4969,6.95,0.0
4970,6.965,0.0
4971,6.96,0.0
4972,6.945,0.0
4973,6.915,0.0
4974,6.895,0.0
4975,6.89,0.0
4976,6.83,0.0
4977,6.765,0.0
4978,6.71,0.0
4979,6.65,0.0
4980,6.595,0.0
4981,6.505,0.0
4982,6.44,0.0
4983,6.37,0.0
4984,6.285,0.0
4985,6.185,0.0
4986,6.11,0.0
4987,6.03,0.0
4988,5.95,0.0
4989,5.87,0.0
4990,5.795,0.0
4991,5.73,0.0
4992,5.68,0.0
4993,5.61,0.0
4994,5.545,0.0
4995,5.51,0.0
4996,5.47,0.0
4997,5.43,0.0
4998,5.38,0.0
4999,5.35,0.0
5000,5.34,0.0
5001,5.285,0.0
5002,5.235,0.0
5003,5.22,0.0
5004,5.215,0.0
5005,5.205,0.0
5006,5.17,0.0
5007,5.155,0.0
5008,5.15,0.0
5009,5.14,0.0
5010,5.11,0.0
5011,5.115,0.0
5012,5.115,0.0
5013,5.115,0.0
5014,5.09,0.0
5015,5.085,0.0
5016,5.085,0.0
5017,5.085,0.0
5018,5.075,0.0
5019,5.075,0.0
5020,5.07,0.0
5021,5.085,0.0
5022,5.07,0.0
5023,5.065,0.0
5024,5.09,0.0
5025,5.1,0.0
5026,5.095,0.0
5027,5.085,0.0
5028,5.085,0.0
5029,5.09,0.0
5030,5.095,0.0
5031,5.09,0.0
5032,5.08,0.0
5033,5.085,0.0
5034,5.09,0.0
5035,5.08,0.0
5036,5.085,0.0
5037,5.095,0.0
5038,5.1,0.0
5039,5.08,0.0
5040,5.075,0.0
5041,5.08,0.0
5042,5.085,0.0
5043,5.075,0.0
5044,5.055,0.0
5045,5.07,0.0
5046,5.07,0.0
5047,5.055,0.0
5048,5.03,0.0
5049,5.05,0.0
5050,5.065,0.0
5051,5.04,0.0
5052,5.03,0.0
5053,5.02,0.0
5054,5.025,0.0
5055,5.02,0.0
5056,5.0,0.0
5057,5.0,0.0
5058,5.0,0.0
5059,5.005,0.0
5060,4.99,0.0
5061,4.985,0.0
5062,4.995,0.0
5063,4.985,0.0
5064,4.975,0.0
5065,4.965,0.0
5066,4.975,0.0
5067,4.97,0.0
5068,4.96,0.0
5069,4.955,0.0
5070,4.96,0.0
5071,4.965,0.0
5072,4.95,0.0
5073,4.945,0.0
5074,4.945,0.0
5075,4.95,0.0
5076,4.945,0.0
5077,4.935,0.0
5078,4.94,0.0
5079,4.955,0.0
5080,4.945,0.0
5081,4.94,0.0
5082,4.925,0.0
5083,4.94,0.0
5084,4.93,0.0
5085,4.93,0.0
5086,4.925,0.0
5087,4.935,0.0
5088,4.945,0.0
5089,4.915,0.0
5090,4.93,0.0
5091,4.94,0.0
5092,4.94,0.0
5093,4.935,0.0
5094,4.925,0.0
5095,4.93,0.0
5096,4.935,0.0
5097,4.935,0.0
5098,4.94,0.0
5099,4.945,0.0
5100,4.95,0.0
5101,4.98,0.0
5102,4.985,0.0
5103,5.03,0.0
5104,5.165,0.0
5105,5.535,0.0
5106,5.915,0.0
5107,5.82,0.0
5108,5.54,0.0
5109,5.44,0.0
5110,5.36,0.0
5111,5.31,0.0
5112,5.26,0.0
5113,5.17,0.0
5114,5.015,0.0
5115,4.765,0.0
5116,4.47,0.0
5117,4.115,0.0
5118,3.705,0.0
5119,3.295,0.0
5120,2.975,0.0
5121,2.72,0.0
5122,2.54,0.0
5123,2.425,0.0
5124,2.3,0.0
5125,2.26,0.0
5126,2.115,0.0
5127,2.07,0.0
5128,2.055,0.0
5129,2.045,0.0
5130,2.025,0.0
5131,2.025,0.0
5132,2.03,0.0
5133,2.045,0.0
5134,2.06,0.0
5135,2.085,0.0
5136,2.15,0.0
5137,2.28,0.0
5138,2.45,0.0
5139,2.615,0.0
5140,2.84,0.0
5141,3.12,0.0
5142,3.43,0.0
5143,3.725,0.0
5144,4.01,0.0
5145,4.32,0.0
5146,4.605,0.0
5147,4.855,0.0
5148,5.075,0.0
5149,5.28,0.0
5150,5.345,0.0
5151,5.625,0.0
5152,5.72,0.0
5153,5.79,0.0
5154,5.85,0.0
5155,5.895,0.0
5156,5.935,0.0
5157,5.98,0.0
5158,6.025,0.0
5159,6.07,0.0
5160,6.085,0.0
5161,6.125,0.0
5162,6.175,0.0
5163,6.22,0.0
5164,6.25,0.0
5165,6.29,0.0
5166,6.345,0.0
5167,6.38,0.0
5168,6.415,0.0
5169,6.455,0.0
5170,6.505,0.0
5171,6.545,0.0
5172,6.58,0.0
5173,6.61,0.0
5174,6.66,0.0
5175,6.68,0.0
5176,6.735,0.0
5177,6.76,0.0
5178,6.795,0.0
5179,6.84,0.0
5180,6.86,0.0
5181,6.865,0.0
5182,6.9,0.0
5183,6.92,0.0
5184,6.925,0.0
5185,6.915,0.0
5186,6.905,0.0
5187,6.905,0.0
5188,6.88,0.0
5189,6.84,0.0
5190,6.79,0.0
5191,6.74,0.0
5192,6.68,0.0
5193,6.6,0.0
5194,6.53,0.0
5195,6.45,0.0
5196,6.365,0.0
5197,6.28,0.0
5198,6.185,0.0
5199,6.1,0.0
5200,6.08,0.0
5201,5.93,0.0
5202,5.85,0.0
5203,5.78,0.0
5204,5.72,0.0
5205,5.645,0.0
5206,5.57,0.0
5207,5.52,0.0
5208,5.475,0.0
5209,5.44,0.0
5210,5.385,0.0
5211,5.345,0.0
5212,5.315,0.0
5213,5.29,0.0
5214,5.245,0.0
5215,5.21,0.0
5216,5.21,0.0
5217,5.185,0.0
5218,5.16,0.0
5219,5.14,0.0
5220,5.14,0.0
5221,5.14,0.0
5222,5.12,0.0
5223,5.11,0.0
5224,5.115,0.0
5225,5.12,0.0
5226,5.105,0.0
5227,5.11,0.0
5228,5.105,0.0
5229,5.11,0.0
5230,5.12,0.0
5231,5.105,0.0
5232,5.11,0.0
5233,5.12,0.0
5234,5.115,0.0
5235,5.1,0.0
5236,5.11,0.0
5237,5.115,0.0
5238,5.12,0.0
5239,5.11,0.0
5240,5.11,0.0
5241,5.12,0.0
5242,5.11,0.0
5243,5.095,0.0
5244,5.095,0.0
5245,5.095,0.0
5246,5.11,0.0
5247,5.095,0.0
5248,5.075,0.0
5249,5.09,0.0
5250,5.095,0.0
5251,5.075,0.0
5252,5.06,0.0
5253,5.06,0.0
5254,5.065,0.0
5255,5.06,0.0
5256,5.04,0.0
5257,5.04,0.0
5258,5.05,0.0
5259,5.04,0.0
5260,5.02,0.0
5261,5.01,0.0
5262,5.01,0.0
5263,5.015,0.0
5264,5.0,0.0
5265,4.99,0.0
5266,4.99,0.0
5267,4.99,0.0
5268,4.98,0.0
5269,4.975,0.0
5270,4.98,0.0
5271,4.97,0.0
5272,4.97,0.0
5273,4.96,0.0
5274,4.955,0.0
5275,4.96,0.0
5276,4.95,0.0
5277,4.945,0.0
5278,4.945,0.0
5279,4.94,0.0
5280,4.945,0.0
5281,4.925,0.0
5282,4.93,0.0
5283,4.945,0.0
5284,4.945,0.0
5285,4.935,0.0
5286,4.93,0.0
5287,4.945,0.0
5288,4.945,0.0
5289,4.93,0.0
5290,4.93,0.0
5291,4.94,0.0
5292,4.935,0.0
5293,4.925,0.0
5294,4.915,0.0
5295,4.92,0.0
5296,4.93,0.0
5297,4.925,0.0
5298,4.91,0.0
5299,4.92,0.0
5300,4.915,0.0
5301,4.915,0.0
5302,4.9,0.0
5303,4.925,0.0
5304,4.925,0.0
5305,4.925,0.0
5306,4.915,0.0
5307,4.925,0.0
5308,4.935,0.0
5309,4.94,0.0
5310,4.93,0.0
5311,4.935,0.0
5312,4.97,0.0
5313,5.085,0.0
5314,5.425,0.0
5315,5.89,0.0
5316,5.815,0.0
5317,5.455,0.0
5318,5.315,0.0
5319,5.27,0.0
5320,5.215,0.0
5321,5.135,0.0
5322,4.98,0.0
5323,4.71,0.0
5324,4.375,0.0
5325,4.265,0.0
5326,3.6,0.0
5327,3.18,0.0
5328,2.885,0.0
5329,2.65,0.0
5330,2.465,0.0
5331,2.32,0.0
5332,2.195,0.0
5333,2.12,0.0
5334,2.07,0.0
5335,2.035,0.0
5336,2.02,0.0
5337,2.02,0.0
5338,2.015,0.0
5339,2.0,0.0
5340,2.02,0.0
5341,2.05,0.0
5342,2.075,0.0
5343,2.13,0.0
5344,2.255,0.0
5345,2.435,0.0
5346,2.67,0.0
5347,2.97,0.0
5348,3.345,0.0
5349,3.735,0.0
5350,3.855,0.0
5351,4.495,0.0
5352,4.795,0.0
5353,5.05,0.0
5354,5.28,0.0
5355,5.49,0.0
5356,5.635,0.0
5357,5.73,0.0
5358,5.805,0.0
5359,5.86,0.0
5360,5.9,0.0
5361,5.96,0.0
5362,5.99,0.0
5363,6.03,0.0
5364,6.06,0.0
5365,6.085,0.0
5366,6.13,0.0
5367,6.165,0.0
5368,6.185,0.0
5369,6.22,0.0
5370,6.275,0.0
5371,6.31,0.0
5372,6.34,0.0
5373,6.365,0.0
5374,6.425,0.0
5375,6.445,0.0
5376,6.515,0.0
5377,6.545,0.0
5378,6.6,0.0
5379,6.655,0.0
5380,6.685,0.0
5381,6.71,0.0
5382,6.775,0.0
5383,6.81,0.0
5384,6.84,0.0
5385,6.86,0.0
5386,6.875,0.0
5387,6.9,0.0
5388,6.925,0.0
5389,6.905,0.0
5390,6.895,0.0
5391,6.885,0.0
5392,6.86,0.0
5393,6.795,0.0
5394,6.745,0.0
5395,6.69,0.0
5396,6.625,0.0
5397,6.535,0.0
5398,6.44,0.0
5399,6.36,0.0
5400,6.335,0.0
5401,6.165,0.0
5402,6.065,0.0
5403,5.975,0.0
5404,5.89,0.0
5405,5.79,0.0
5406,5.705,0.0
5407,5.63,0.0
5408,5.58,0.0
5409,5.515,0.0
5410,5.45,0.0
5411,5.4,0.0
5412,5.37,0.0
5413,5.325,0.0
5414,5.295,0.0
5415,5.265,0.0
5416,5.245,0.0
5417,5.23,0.0
5418,5.2,0.0
5419,5.18,0.0
5420,5.175,0.0
5421,5.18,0.0
5422,5.16,0.0
5423,5.135,0.0
5424,5.135,0.0
5425,5.14,0.0
5426,5.14,0.0
5427,5.12,0.0
5428,5.13,0.0
5429,5.13,0.0
5430,5.14,0.0
5431,5.12,0.0
5432,5.125,0.0
5433,5.135,0.0
5434,5.13,0.0
5435,5.115,0.0
5436,5.11,0.0
5437,5.13,0.0
5438,5.12,0.0
5439,5.11,0.0
5440,5.11,0.0
5441,5.115,0.0
5442,5.12,0.0
5443,5.11,0.0
5444,5.095,0.0
5445,5.105,0.0
5446,5.1,0.0
5447,5.095,0.0
5448,5.07,0.0
5449,5.085,0.0
5450,5.08,0.0
5451,5.08,0.0
5452,5.07,0.0
5453,5.05,0.0
5454,5.06,0.0
5455,5.055,0.0
5456,5.035,0.0
5457,5.03,0.0
5458,5.03,0.0
5459,5.025,0.0
5460,5.01,0.0
5461,5.005,0.0
5462,5.0,0.0
5463,5.01,0.0
5464,4.985,0.0
5465,4.975,0.0
5466,4.985,0.0
5467,4.99,0.0
5468,4.97,0.0
5469,4.96,0.0
5470,4.965,0.0
5471,4.97,0.0
5472,4.955,0.0
5473,4.94,0.0
5474,4.955,0.0
5475,4.965,0.0
5476,4.955,0.0
5477,4.945,0.0
5478,4.945,0.0
5479,4.95,0.0
5480,4.945,0.0
5481,4.935,0.0
5482,4.935,0.0
5483,4.945,0.0
5484,4.94,0.0
5485,4.93,0.0
5486,4.93,0.0
5487,4.935,0.0
5488,4.94,0.0
5489,4.92,0.0
5490,4.925,0.0
5491,4.935,0.0
5492,4.935,0.0
5493,4.925,0.0
5494,4.905,0.0
5495,4.925,0.0
5496,4.92,0.0
5497,4.925,0.0
5498,4.91,0.0
5499,4.92,0.0
5500,4.93,0.0
5501,4.915,0.0
5502,4.9,0.0
5503,4.91,0.0
5504,4.925,0.0
5505,4.91,0.0
5506,4.905,0.0
5507,4.915,0.0
5508,4.925,0.0
5509,4.93,0.0
5510,4.93,0.0
5511,4.955,0.0
5512,5.115,0.0
5513,5.54,0.0
5514,5.845,0.0
5515,5.58,0.0
5516,5.355,0.0
5517,5.315,0.0
5518,5.255,0.0
5519,5.195,0.0
5520,5.115,0.0
5521,4.955,0.0
5522,4.685,0.0
5523,4.34,0.0
5524,3.97,0.0
5525,3.85,0.0
5526,3.22,0.0
5527,2.92,0.0
5528,2.7,0.0
5529,2.54,0.0
5530,2.41,0.0
5531,2.25,0.0
5532,2.14,0.0
5533,2.105,0.0
5534,2.065,0.0
5535,2.03,0.0
5536,2.02,0.0
5537,2.01,0.0
5538,2.02,0.0
5539,2.025,0.0
5540,2.025,0.0
5541,2.08,0.0
5542,2.155,0.0
5543,2.285,0.0
5544,2.46,0.0
5545,2.68,0.0
5546,2.935,0.0
5547,3.24,0.0
5548,3.575,0.0
5549,3.915,0.0
5550,4.015,0.0
5551,4.505,0.0
5552,4.76,0.0
5553,5.005,0.0
5554,5.22,0.0
5555,5.385,0.0
5556,5.525,0.0
5557,5.64,0.0
5558,5.72,0.0
5559,5.79,0.0
5560,5.82,0.0
5561,5.86,0.0
5562,5.91,0.0
5563,5.94,0.0
5564,5.96,0.0
5565,5.995,0.0
5566,6.045,0.0
5567,6.07,0.0
5568,6.085,0.0
5569,6.115,0.0
5570,6.16,0.0
5571,6.185,0.0
5572,6.215,0.0
5573,6.24,0.0
5574,6.275,0.0
5575,6.285,0.0
5576,6.355,0.0
5577,6.375,0.0
5578,6.42,0.0
5579,6.465,0.0
5580,6.495,0.0
5581,6.525,0.0
5582,6.565,0.0
5583,6.62,0.0
5584,6.65,0.0
5585,6.675,0.0
5586,6.71,0.0
5587,6.745,0.0
5588,6.76,0.0
5589,6.775,0.0
5590,6.775,0.0
5591,6.8,0.0
5592,6.795,0.0
5593,6.76,0.0
5594,6.73,0.0
5595,6.72,0.0
5596,6.675,0.0
5597,6.615,0.0
5598,6.54,0.0
5599,6.49,0.0
5600,6.47,0.0
5601,6.33,0.0
5602,6.24,0.0
5603,6.155,0.0
5604,6.065,0.0
5605,5.98,0.0
5606,5.87,0.0
5607,5.8,0.0
5608,5.735,0.0
5609,5.645,0.0
5610,5.57,0.0
5611,5.51,0.0
5612,5.475,0.0
5613,5.415,0.0
5614,5.365,0.0
5615,5.325,0.0
5616,5.3,0.0
5617,5.28,0.0
5618,5.23,0.0
5619,5.205,0.0
5620,5.195,0.0
5621,5.185,0.0
5622,5.17,0.0
5623,5.14,0.0
5624,5.15,0.0
5625,5.155,0.0
5626,5.14,0.0
5627,5.125,0.0
5628,5.125,0.0
5629,5.135,0.0
5630,5.135,0.0
5631,5.115,0.0
5632,5.12,0.0
5633,5.135,0.0
5634,5.14,0.0
5635,5.11,0.0
5636,5.11,0.0
5637,5.125,0.0
5638,5.13,0.0
5639,5.125,0.0
5640,5.12,0.0
5641,5.12,0.0
5642,5.12,0.0
5643,5.115,0.0
5644,5.1,0.0
5645,5.105,0.0
5646,5.115,0.0
5647,5.11,0.0
5648,5.09,0.0
5649,5.095,0.0
5650,5.1,0.0
5651,5.08,0.0
5652,5.07,0.0
5653,5.08,0.0
5654,5.075,0.0
5655,5.07,0.0
5656,5.05,0.0
5657,5.05,0.0
5658,5.05,0.0
5659,5.045,0.0
5660,5.03,0.0
5661,5.02,0.0
5662,5.03,0.0
5663,5.02,0.0
5664,5.005,0.0
5665,5.0,0.0
5666,5.005,0.0
5667,5.0,0.0
5668,4.98,0.0
5669,4.975,0.0
5670,4.98,0.0
5671,4.985,0.0
5672,4.97,0.0
5673,4.95,0.0
5674,4.965,0.0
5675,4.97,0.0
5676,4.96,0.0
5677,4.945,0.0
5678,4.945,0.0
5679,4.96,0.0
5680,4.96,0.0
5681,4.94,0.0
5682,4.95,0.0
5683,4.95,0.0
5684,4.95,0.0
5685,4.93,0.0
5686,4.935,0.0
5687,4.94,0.0
5688,4.945,0.0
5689,4.93,0.0
5690,4.93,0.0
5691,4.94,0.0
5692,4.95,0.0
5693,4.93,0.0
5694,4.91,0.0
5695,4.925,0.0
5696,4.935,0.0
5697,4.925,0.0
5698,4.92,0.0
5699,4.93,0.0
5700,4.935,0.0
5701,4.93,0.0
5702,4.915,0.0
5703,4.93,0.0
5704,4.94,0.0
5705,4.935,0.0
5706,4.92,0.0
5707,4.925,0.0
5708,4.94,0.0
5709,4.945,0.0
5710,4.95,0.0
5711,5.015,0.0
5712,5.29,0.0
5713,5.735,0.0
5714,5.72,0.0
5715,5.425,0.0
5716,5.335,0.0
5717,5.3,0.0
5718,5.255,0.0
5719,5.175,0.0
5720,5.08,0.0
5721,4.89,0.0
5722,4.58,0.0
5723,4.23,0.0
5724,3.865,0.0
5725,3.75,0.0
5726,3.14,0.0
5727,2.875,0.0
5728,2.67,0.0
5729,2.53,0.0
5730,2.385,0.0
5731,2.23,0.0
5732,2.15,0.0
5733,2.105,0.0
5734,2.08,0.0
5735,2.05,0.0
5736,2.04,0.0
5737,2.04,0.0
5738,2.04,0.0
5739,2.03,0.0
5740,2.05,0.0
5741,2.09,0.0
5742,2.165,0.0
5743,2.28,0.0
5744,2.475,0.0
5745,2.73,0.0
5746,3.04,0.0
5747,3.39,0.0
5748,3.73,0.0
5749,4.055,0.0
5750,4.15,0.0
5751,4.66,0.0
5752,4.91,0.0
5753,5.135,0.0
5754,5.34,0.0
5755,5.515,0.0
5756,5.64,0.0
5757,5.72,0.0
5758,5.78,0.0
5759,5.82,0.0
5760,5.85,0.0
5761,5.89,0.0
5762,5.955,0.0
5763,5.995,0.0
5764,6.04,0.0
5765,6.06,0.0
5766,6.115,0.0
5767,6.135,0.0
5768,6.155,0.0
5769,6.18,0.0
5770,6.225,0.0
5771,6.265,0.0
5772,6.29,0.0
5773,6.31,0.0
5774,6.355,0.0
5775,6.375,0.0
5776,6.42,0.0
5777,6.445,0.0
5778,6.505,0.0
5779,6.545,0.0
5780,6.585,0.0
5781,6.605,0.0
5782,6.65,0.0
5783,6.69,0.0
5784,6.73,0.0
5785,6.76,0.0
5786,6.79,0.0
5787,6.83,0.0
5788,6.85,0.0
5789,6.86,0.0
5790,6.87,0.0
5791,6.885,0.0
5792,6.89,0.0
5793,6.87,0.0
5794,6.845,0.0
5795,6.815,0.0
5796,6.785,0.0
5797,6.72,0.0
5798,6.64,0.0
5799,6.59,0.0
5800,6.565,0.0
5801,6.425,0.0
5802,6.33,0.0
5803,6.26,0.0
5804,6.175,0.0
5805,6.08,0.0
5806,5.97,0.0
5807,5.885,0.0
5808,5.82,0.0
5809,5.74,0.0
5810,5.645,0.0
5811,5.585,0.0
5812,5.545,0.0
5813,5.48,0.0
5814,5.42,0.0
5815,5.385,0.0
5816,5.35,0.0
5817,5.31,0.0
5818,5.275,0.0
5819,5.25,0.0
5820,5.24,0.0
5821,5.23,0.0
5822,5.2,0.0
5823,5.175,0.0
5824,5.185,0.0
5825,5.18,0.0
5826,5.165,0.0
5827,5.155,0.0
5828,5.15,0.0
5829,5.165,0.0
5830,5.15,0.0
5831,5.13,0.0
5832,5.135,0.0
5833,5.145,0.0
5834,5.145,0.0
5835,5.135,0.0
5836,5.145,0.0
5837,5.15,0.0
5838,5.15,0.0
5839,5.135,0.0
5840,5.14,0.0
5841,5.14,0.0
5842,5.15,0.0
5843,5.135,0.0
5844,5.13,0.0
5845,5.13,0.0
5846,5.135,0.0
5847,5.12,0.0
5848,5.105,0.0
5849,5.115,0.0
5850,5.12,0.0
5851,5.11,0.0
5852,5.095,0.0
5853,5.095,0.0
5854,5.095,0.0
5855,5.09,0.0
5856,5.075,0.0
5857,5.07,0.0
5858,5.065,0.0
5859,5.06,0.0
5860,5.05,0.0
5861,5.035,0.0
5862,5.055,0.0
5863,5.04,0.0
5864,5.01,0.0
5865,5.015,0.0
5866,5.025,0.0
5867,5.015,0.0
5868,5.0,0.0
5869,4.995,0.0
5870,5.0,0.0
5871,5.01,0.0
5872,4.985,0.0
5873,4.965,0.0
5874,4.985,0.0
5875,4.995,0.0
5876,4.985,0.0
5877,4.975,0.0
5878,4.965,0.0
5879,4.975,0.0
5880,4.965,0.0
5881,4.96,0.0
5882,4.95,0.0
5883,4.96,0.0
5884,4.965,0.0
5885,4.95,0.0
5886,4.945,0.0
5887,4.955,0.0
5888,4.955,0.0
5889,4.945,0.0
5890,4.94,0.0
5891,4.96,0.0
5892,4.95,0.0
5893,4.94,0.0
5894,4.935,0.0
5895,4.945,0.0
5896,4.95,0.0
5897,4.945,0.0
5898,4.93,0.0
5899,4.945,0.0
5900,4.95,0.0
5901,4.945,0.0
5902,4.93,0.0
5903,4.925,0.0
5904,4.935,0.0
5905,4.935,0.0
5906,4.93,0.0
5907,4.93,0.0
5908,4.945,0.0
5909,4.945,0.0
5910,4.93,0.0
5911,4.94,0.0
5912,4.96,0.0
5913,4.97,0.0
5914,4.995,0.0
5915,5.15,0.0
5916,5.595,0.0
5917,5.82,0.0
5918,5.575,0.0
5919,5.365,0.0
5920,5.3,0.0
5921,5.235,0.0
5922,5.13,0.0
5923,4.975,0.0
5924,4.78,0.0
5925,4.72,0.0
5926,4.24,0.0
5927,3.93,0.0
5928,3.69,0.0
5929,3.475,0.0
5930,3.245,0.0
5931,2.97,0.0
5932,2.685,0.0
5933,2.52,0.0
5934,2.38,0.0
5935,2.27,0.0
5936,2.165,0.0
5937,2.125,0.0
5938,2.095,0.0
5939,2.065,0.0
5940,2.055,0.0
5941,2.055,0.0
5942,2.045,0.0
5943,2.05,0.0
5944,2.055,0.0
5945,2.105,0.0
5946,2.17,0.0
5947,2.27,0.0
5948,2.425,0.0
5949,2.65,0.0
5950,2.725,0.0
5951,3.23,0.0
5952,3.58,0.0
5953,3.945,0.0
5954,4.26,0.0
5955,4.55,0.0
5956,4.79,0.0
5957,5.045,0.0
5958,5.28,0.0
5959,5.49,0.0
5960,5.615,0.0
5961,5.715,0.0
5962,5.79,0.0
5963,5.845,0.0
5964,5.885,0.0
5965,5.93,0.0
5966,5.98,0.0
5967,6.005,0.0
5968,6.025,0.0
5969,6.06,0.0
5970,6.1,0.0
5971,6.13,0.0
5972,6.155,0.0
5973,6.185,0.0
5974,6.225,0.0
5975,6.245,0.0
5976,6.29,0.0
5977,6.32,0.0
5978,6.365,0.0
5979,6.415,0.0
5980,6.455,0.0
5981,6.48,0.0
5982,6.535,0.0
5983,6.59,0.0
5984,6.63,0.0
5985,6.655,0.0
5986,6.695,0.0
5987,6.75,0.0
5988,6.77,0.0
5989,6.79,0.0
5990,6.825,0.0
5991,6.855,0.0
5992,6.86,0.0
5993,6.865,0.0
5994,6.855,0.0
5995,6.875,0.0
5996,6.865,0.0
5997,6.84,0.0
5998,6.8,0.0
5999,6.785,0.0
6000,6.775,0.0
6001,6.7,0.0
6002,6.635,0.0
6003,6.605,0.0
6004,6.54,0.0
6005,6.46,0.0
6006,6.365,0.0
6007,6.295,0.0
6008,6.21,0.0
6009,6.13,0.0
6010,6.03,0.0
6011,5.94,0.0
6012,5.875,0.0
6013,5.8,0.0
6014,5.71,0.0
6015,5.635,0.0
6016,5.59,0.0
6017,5.53,0.0
6018,5.46,0.0
6019,5.41,0.0
6020,5.365,0.0
6021,5.335,0.0
6022,5.295,0.0
6023,5.26,0.0
6024,5.235,0.0
6025,5.23,0.0
6026,5.185,0.0
6027,5.16,0.0
6028,5.155,0.0
6029,5.16,0.0
6030,5.14,0.0
6031,5.12,0.0
6032,5.12,0.0
6033,5.135,0.0
6034,5.13,0.0
6035,5.115,0.0
6036,5.12,0.0
6037,5.125,0.0
6038,5.13,0.0
6039,5.115,0.0
6040,5.115,0.0
6041,5.135,0.0
6042,5.12,0.0
6043,5.12,0.0
6044,5.115,0.0
6045,5.125,0.0
6046,5.135,0.0
6047,5.125,0.0
6048,5.12,0.0
6049,5.125,0.0
6050,5.13,0.0
6051,5.125,0.0
6052,5.11,0.0
6053,5.11,0.0
6054,5.12,0.0
6055,5.11,0.0
6056,5.095,0.0
6057,5.1,0.0
6058,5.095,0.0
6059,5.095,0.0
6060,5.08,0.0
6061,5.07,0.0
6062,5.09,0.0
6063,5.075,0.0
6064,5.05,0.0
6065,5.045,0.0
6066,5.06,0.0
6067,5.05,0.0
6068,5.03,0.0
6069,5.03,0.0
6070,5.03,0.0
6071,5.035,0.0
6072,5.015,0.0
6073,5.005,0.0
6074,5.02,0.0
6075,5.015,0.0
6076,5.005,0.0
6077,4.995,0.0
6078,4.995,0.0
6079,4.995,0.0
6080,4.975,0.0
6081,4.965,0.0
6082,4.97,0.0
6083,4.985,0.0
6084,4.98,0.0
6085,4.97,0.0
6086,4.97,0.0
6087,4.965,0.0
6088,4.965,0.0
6089,4.955,0.0
6090,4.945,0.0
6091,4.955,0.0
6092,4.955,0.0
6093,4.95,0.0
6094,4.935,0.0
6095,4.945,0.0
6096,4.95,0.0
6097,4.945,0.0
6098,4.94,0.0
6099,4.935,0.0
6100,4.94,0.0
6101,4.935,0.0
6102,4.925,0.0
6103,4.935,0.0
6104,4.935,0.0
6105,4.935,0.0
6106,4.93,0.0
6107,4.92,0.0
6108,4.935,0.0
6109,4.935,0.0
6110,4.925,0.0
6111,4.92,0.0
6112,4.94,0.0
6113,4.935,0.0
6114,4.925,0.0
6115,4.92,0.0
6116,4.925,0.0
6117,4.935,0.0
6118,4.925,0.0
6119,4.915,0.0
6120,4.93,0.0
6121,4.955,0.0
6122,4.995,0.0
6123,5.17,0.0
6124,5.665,0.0
6125,5.84,0.0
6126,5.645,0.0
6127,5.38,0.0
6128,5.31,0.0
6129,5.25,0.0
6130,5.14,0.0
6131,4.98,0.0
6132,4.775,0.0
6133,4.525,0.0
6134,4.225,0.0
6135,3.905,0.0
6136,3.63,0.0
6137,3.415,0.0
6138,3.2,0.0
6139,2.945,0.0
6140,2.67,0.0
6141,2.51,0.0
6142,2.37,0.0
6143,2.24,0.0
6144,2.125,0.0
6145,2.085,0.0
6146,2.065,0.0
6147,2.035,0.0
6148,2.015,0.0
6149,2.02,0.0
6150,2.025,0.0
6151,2.035,0.0
6152,2.035,0.0
6153,2.095,0.0
6154,2.19,0.0
6155,2.32,0.0
6156,2.51,0.0
6157,2.77,0.0
6158,3.065,0.0
6159,3.405,0.0
6160,3.74,0.0
6161,4.08,0.0
6162,4.4,0.0
6163,4.675,0.0
6164,4.915,0.0
6165,5.135,0.0
6166,5.345,0.0
6167,5.505,0.0
6168,5.61,0.0
6169,5.68,0.0
6170,5.75,0.0
6171,5.805,0.0
6172,5.84,0.0
6173,5.86,0.0
6174,5.92,0.0
6175,5.94,0.0
6176,5.975,0.0
6177,6.0,0.0
6178,6.03,0.0
6179,6.065,0.0
6180,6.085,0.0
6181,6.095,0.0
6182,6.14,0.0
6183,6.185,0.0
6184,6.205,0.0
6185,6.23,0.0
6186,6.265,0.0
6187,6.31,0.0
6188,6.34,0.0
6189,6.36,0.0
6190,6.395,0.0
6191,6.445,0.0
6192,6.49,0.0
6193,6.525,0.0
6194,6.555,0.0
6195,6.595,0.0
6196,6.63,0.0
6197,6.65,0.0
6198,6.675,0.0
6199,6.715,0.0
6200,6.73,0.0
6201,6.755,0.0
6202,6.76,0.0
6203,6.77,0.0
6204,6.765,0.0
6205,6.76,0.0
6206,6.735,0.0
6207,6.71,0.0
6208,6.68,0.0
6209,6.635,0.0
6210,6.57,0.0
6211,6.52,0.0
6212,6.465,0.0
6213,6.4,0.0
6214,6.305,0.0
6215,6.225,0.0
6216,6.175,0.0
6217,6.08,0.0
6218,5.995,0.0
6219,5.91,0.0
6220,5.86,0.0
6221,5.77,0.0
6222,5.69,0.0
6223,5.61,0.0
6224,5.565,0.0
6225,5.55,0.0
6226,5.455,0.0
6227,5.39,0.0
6228,5.355,0.0
6229,5.325,0.0
6230,5.285,0.0
6231,5.24,0.0
6232,5.225,0.0
6233,5.21,0.0
6234,5.185,0.0
6235,5.165,0.0
6236,5.15,0.0
6237,5.155,0.0
6238,5.145,0.0
6239,5.14,0.0
6240,5.135,0.0
6241,5.16,0.0
6242,5.155,0.0
6243,5.145,0.0
6244,5.135,0.0
6245,5.16,0.0
6246,5.155,0.0
6247,5.145,0.0
6248,5.135,0.0
6249,5.155,0.0
6250,5.16,0.0
6251,5.155,0.0
6252,5.135,0.0
6253,5.14,0.0
6254,5.125,0.0
6255,5.1,0.0
6256,5.095,0.0
6257,5.08,0.0
6258,5.09,0.0
6259,5.075,0.0
6260,5.05,0.0
6261,5.055,0.0
6262,5.065,0.0
6263,5.06,0.0
6264,5.045,0.0
6265,5.07,0.0
6266,5.075,0.0
6267,5.06,0.0
6268,5.035,0.0
6269,5.03,0.0
6270,5.04,0.0
6271,5.05,0.0
6272,5.025,0.0
6273,5.025,0.0
6274,5.02,0.0
6275,5.035,0.0
6276,5.025,0.0
6277,5.005,0.0
6278,5.01,0.0
6279,5.015,0.0
6280,5.0,0.0
6281,4.985,0.0
6282,4.99,0.0
6283,4.995,0.0
6284,4.98,0.0
6285,4.965,0.0
6286,4.96,0.0
6287,4.985,0.0
6288,4.97,0.0
6289,4.955,0.0
6290,4.95,0.0
6291,4.96,0.0
6292,4.965,0.0
6293,4.95,0.0
6294,4.945,0.0
6295,4.95,0.0
6296,4.955,0.0
6297,4.94,0.0
6298,4.93,0.0
6299,4.945,0.0
6300,4.95,0.0
6301,4.935,0.0
6302,4.925,0.0
6303,4.94,0.0
6304,4.945,0.0
6305,4.94,0.0
6306,4.94,0.0
6307,4.94,0.0
6308,4.95,0.0
6309,4.955,0.0
6310,4.935,0.0
6311,4.94,0.0
6312,4.96,0.0
6313,4.96,0.0
6314,4.94,0.0
6315,4.945,0.0
6316,4.955,0.0
6317,4.95,0.0
6318,4.945,0.0
6319,4.93,0.0
6320,4.955,0.0
6321,4.95,0.0
6322,4.95,0.0
6323,4.94,0.0
6324,4.955,0.0
6325,4.96,0.0
6326,4.965,0.0
6327,4.95,0.0
6328,4.955,0.0
6329,4.97,0.0
6330,4.975,0.0
6331,4.96,0.0
6332,4.995,0.0
6333,5.08,0.0
6334,5.345,0.0
6335,5.82,0.0
6336,5.88,0.0
6337,5.575,0.0
6338,5.43,0.0
6339,5.385,0.0
6340,5.335,0.0
6341,5.295,0.0
6342,5.23,0.0
6343,5.1,0.0
6344,4.89,0.0
6345,4.625,0.0
6346,4.305,0.0
6347,3.955,0.0
6348,3.595,0.0
6349,3.28,0.0
6350,3.195,0.0
6351,2.83,0.0
6352,2.66,0.0
6353,2.575,0.0
6354,2.46,0.0
6355,2.31,0.0
6356,2.21,0.0
6357,2.175,0.0
6358,2.155,0.0
6359,2.12,0.0
6360,2.085,0.0
6361,2.075,0.0
6362,2.09,0.0
6363,2.08,0.0
6364,2.09,0.0
6365,2.125,0.0
6366,2.225,0.0
6367,2.34,0.0
6368,2.485,0.0
6369,2.675,0.0
6370,2.9,0.0
6371,3.16,0.0
6372,3.445,0.0
6373,3.74,0.0
6374,4.03,0.0
6375,4.125,0.0
6376,4.605,0.0
6377,4.84,0.0
6378,5.065,0.0
6379,5.255,0.0
6380,5.435,0.0
6381,5.59,0.0
6382,5.715,0.0
6383,5.8,0.0
6384,5.855,0.0
6385,5.89,0.0
6386,5.94,0.0
6387,6.005,0.0
6388,6.04,0.0
6389,6.065,0.0
6390,6.1,0.0
6391,6.165,0.0
6392,6.19,0.0
6393,6.21,0.0
6394,6.25,0.0
6395,6.3,0.0
6396,6.35,0.0
6397,6.38,0.0
6398,6.425,0.0
6399,6.48,0.0
6400,6.5,0.0
6401,6.57,0.0
6402,6.61,0.0
6403,6.665,0.0
6404,6.715,0.0
6405,6.755,0.0
6406,6.795,0.0
6407,6.85,0.0
6408,6.895,0.0
6409,6.925,0.0
6410,6.955,0.0
6411,6.975,0.0
6412,7.01,0.0
6413,7.03,0.0
6414,7.03,0.0
6415,7.025,0.0
6416,7.04,0.0
6417,7.03,0.0
6418,7.0,0.0
6419,6.98,0.0
6420,6.94,0.0
6421,6.9,0.0
6422,6.835,0.0
6423,6.77,0.0
6424,6.715,0.0
6425,6.695,0.0
6426,6.57,0.0
6427,6.485,0.0
6428,6.41,0.0
6429,6.325,0.0
6430,6.235,0.0
6431,6.14,0.0
6432,6.07,0.0
6433,5.99,0.0
6434,5.915,0.0
6435,5.83,0.0
6436,5.77,0.0
6437,5.71,0.0
6438,5.655,0.0
6439,5.59,0.0
6440,5.525,0.0
6441,5.495,0.0
6442,5.455,0.0
6443,5.405,0.0
6444,5.36,0.0
6445,5.33,0.0
6446,5.305,0.0
6447,5.28,0.0
6448,5.245,0.0
6449,5.245,0.0
6450,5.24,0.0
6451,5.2,0.0
6452,5.18,0.0
6453,5.17,0.0
6454,5.17,0.0
6455,5.155,0.0
6456,5.14,0.0
6457,5.135,0.0
6458,5.145,0.0
6459,5.135,0.0
6460,5.125,0.0
6461,5.12,0.0
6462,5.135,0.0
6463,5.14,0.0
6464,5.135,0.0
6465,5.13,0.0
6466,5.145,0.0
6467,5.15,0.0
6468,5.14,0.0
6469,5.14,0.0
6470,5.15,0.0
6471,5.16,0.0
6472,5.16,0.0
6473,5.16,0.0
6474,5.185,0.0
6475,5.19,0.0
6476,5.18,0.0
6477,5.17,0.0
6478,5.16,0.0
6479,5.16,0.0
6480,5.15,0.0
6481,5.13,0.0
6482,5.135,0.0
6483,5.125,0.0
6484,5.1,0.0
6485,5.07,0.0
6486,5.055,0.0
6487,5.045,0.0
6488,5.04,0.0
6489,5.02,0.0
6490,5.015,0.0
6491,5.045,0.0
6492,5.06,0.0
6493,5.045,0.0
6494,5.045,0.0
6495,5.05,0.0
6496,5.035,0.0
6497,5.03,0.0
6498,5.015,0.0
6499,5.02,0.0
6500,5.025,0.0
6501,5.015,0.0
6502,5.01,0.0
6503,5.015,0.0
6504,5.015,0.0
6505,5.01,0.0
6506,5.0,0.0
6507,4.99,0.0
6508,4.995,0.0
6509,4.985,0.0
6510,4.98,0.0
6511,4.975,0.0
6512,4.985,0.0
6513,4.975,0.0
6514,4.965,0.0
6515,4.97,0.0
6516,4.99,0.0
6517,4.975,0.0
6518,4.97,0.0
6519,4.96,0.0
6520,4.97,0.0
6521,4.96,0.0
6522,4.955,0.0
6523,4.95,0.0
6524,4.955,0.0
6525,4.96,0.0
6526,4.955,0.0
6527,4.95,0.0
6528,4.95,0.0
6529,4.965,0.0
6530,4.97,0.0
6531,4.95,0.0
6532,4.955,0.0
6533,4.97,0.0
6534,4.965,0.0
6535,4.96,0.0
6536,4.955,0.0
6537,4.96,0.0
6538,4.965,0.0
6539,4.96,0.0
6540,4.955,0.0
6541,4.97,0.0
6542,4.97,0.0
6543,4.97,0.0
6544,4.965,0.0
6545,4.99,0.0
6546,5.015,0.0
6547,5.055,0.0
6548,5.245,0.0
6549,5.685,0.0
6550,5.835,0.0
6551,5.635,0.0
6552,5.42,0.0
6553,5.37,0.0
6554,5.33,0.0
6555,5.285,0.0
6556,5.215,0.0
6557,5.12,0.0
6558,4.955,0.0
6559,4.715,0.0
6560,4.39,0.0
6561,4.05,0.0
6562,3.735,0.0
6563,3.37,0.0
6564,3.05,0.0
6565,2.825,0.0
6566,2.665,0.0
6567,2.55,0.0
6568,2.445,0.0
6569,2.335,0.0
6570,2.25,0.0
6571,2.16,0.0
6572,2.105,0.0
6573,2.095,0.0
6574,2.06,0.0
6575,2.065,0.0
6576,2.04,0.0
6577,2.025,0.0
6578,2.035,0.0
6579,2.055,0.0
6580,2.065,0.0
6581,2.1,0.0
6582,2.165,0.0
6583,2.28,0.0
6584,2.42,0.0
6585,2.585,0.0
6586,2.79,0.0
6587,3.06,0.0
6588,3.355,0.0
6589,3.655,0.0
6590,3.975,0.0
6591,4.285,0.0
6592,4.575,0.0
6593,4.83,0.0
6594,5.045,0.0
6595,5.245,0.0
6596,5.42,0.0
6597,5.575,0.0
6598,5.71,0.0
6599,5.82,0.0
6600,5.85,0.0
6601,5.945,0.0
6602,5.99,0.0
6603,6.045,0.0
6604,6.085,0.0
6605,6.12,0.0
6606,6.155,0.0
6607,6.195,0.0
6608,6.25,0.0
6609,6.285,0.0
6610,6.315,0.0
6611,6.355,0.0
6612,6.405,0.0
6613,6.455,0.0
6614,6.485,0.0
6615,6.535,0.0
6616,6.59,0.0
6617,6.635,0.0
6618,6.68,0.0
6619,6.725,0.0
6620,6.785,0.0
6621,6.83,0.0
6622,6.87,0.0
6623,6.9,0.0
6624,6.95,0.0
6625,6.97,0.0
6626,7.02,0.0
6627,7.035,0.0
6628,7.075,0.0
6629,7.1,0.0
6630,7.11,0.0
6631,7.115,0.0
6632,7.115,0.0
6633,7.135,0.0
6634,7.11,0.0
6635,7.08,0.0
6636,7.05,0.0
6637,7.03,0.0
6638,6.98,0.0
6639,6.915,0.0
6640,6.845,0.0
6641,6.8,0.0
6642,6.72,0.0
6643,6.63,0.0
6644,6.54,0.0
6645,6.475,0.0
6646,6.385,0.0
6647,6.285,0.0
6648,6.205,0.0
6649,6.125,0.0
6650,6.1,0.0
6651,5.96,0.0
6652,5.88,0.0
6653,5.815,0.0
6654,5.75,0.0
6655,5.68,0.0
6656,5.605,0.0
6657,5.565,0.0
6658,5.525,0.0
6659,5.475,0.0
6660,5.415,0.0
6661,5.385,0.0
6662,5.355,0.0
6663,5.315,0.0
6664,5.285,0.0
6665,5.25,0.0
6666,5.25,0.0
6667,5.225,0.0
6668,5.2,0.0
6669,5.18,0.0
6670,5.185,0.0
6671,5.175,0.0
6672,5.145,0.0
6673,5.135,0.0
6674,5.135,0.0
6675,5.135,0.0
6676,5.125,0.0
6677,5.11,0.0
6678,5.105,0.0
6679,5.115,0.0
6680,5.115,0.0
6681,5.105,0.0
6682,5.105,0.0
6683,5.11,0.0
6684,5.105,0.0
6685,5.09,0.0
6686,5.095,0.0
6687,5.115,0.0
6688,5.105,0.0
6689,5.1,0.0
6690,5.1,0.0
6691,5.115,0.0
6692,5.105,0.0
6693,5.095,0.0
6694,5.095,0.0
6695,5.11,0.0
6696,5.115,0.0
6697,5.1,0.0
6698,5.095,0.0
6699,5.1,0.0
6700,5.11,0.0
6701,5.09,0.0
6702,5.085,0.0
6703,5.09,0.0
6704,5.105,0.0
6705,5.085,0.0
6706,5.075,0.0
6707,5.075,0.0
6708,5.085,0.0
6709,5.075,0.0
6710,5.055,0.0
6711,5.055,0.0
6712,5.06,0.0
6713,5.045,0.0
6714,5.025,0.0
6715,5.02,0.0
6716,5.025,0.0
6717,5.025,0.0
6718,5.01,0.0
6719,5.0,0.0
6720,5.005,0.0
6721,5.005,0.0
6722,5.0,0.0
6723,4.995,0.0
6724,5.0,0.0
6725,4.995,0.0
6726,4.985,0.0
6727,4.975,0.0
6728,4.98,0.0
6729,4.99,0.0
6730,4.98,0.0
6731,4.965,0.0
6732,4.98,0.0
6733,4.98,0.0
6734,4.975,0.0
6735,4.96,0.0
6736,4.965,0.0
6737,4.995,0.0
6738,5.0,0.0
6739,4.99,0.0
6740,5.005,0.0
6741,5.015,0.0
6742,5.015,0.0
6743,5.005,0.0
6744,4.995,0.0
6745,5.015,0.0
6746,5.015,0.0
6747,5.0,0.0
6748,4.98,0.0
6749,4.98,0.0
6750,4.975,0.0
6751,4.945,0.0
6752,4.945,0.0
6753,4.945,0.0
6754,4.93,0.0
6755,4.92,0.0
6756,4.905,0.0
6757,4.905,0.0
6758,4.915,0.0
6759,4.915,0.0
6760,4.92,0.0
6761,4.935,0.0
6762,4.975,0.0
6763,5.03,0.0
6764,5.3,0.0
6765,5.785,0.0
6766,5.83,0.0
6767,5.505,0.0
6768,5.36,0.0
6769,5.31,0.0
6770,5.275,0.0
6771,5.23,0.0
6772,5.13,0.0
6773,4.97,0.0
6774,4.765,0.0
6775,4.69,0.0
6776,4.13,0.0
6777,3.775,0.0
6778,3.43,0.0
6779,3.165,0.0
6780,2.98,0.0
6781,2.845,0.0
6782,2.76,0.0
6783,2.62,0.0
6784,2.47,0.0
6785,2.32,0.0
6786,2.24,0.0
6787,2.195,0.0
6788,2.145,0.0
6789,2.085,0.0
6790,2.055,0.0
6791,2.06,0.0
6792,2.04,0.0
6793,2.03,0.0
6794,2.04,0.0
6795,2.08,0.0
6796,2.16,0.0
6797,2.285,0.0
6798,2.445,0.0
6799,2.645,0.0
6800,2.71,0.0
6801,3.18,0.0
6802,3.505,0.0
6803,3.845,0.0
6804,4.17,0.0
6805,4.475,0.0
6806,4.745,0.0
6807,5.01,0.0
6808,5.225,0.0
6809,5.41,0.0
6810,5.585,0.0
6811,5.72,0.0
6812,5.81,0.0
6813,5.875,0.0
6814,5.91,0.0
6815,5.975,0.0
6816,6.04,0.0
6817,6.07,0.0
6818,6.1,0.0
6819,6.145,0.0
6820,6.21,0.0
6821,6.245,0.0
6822,6.28,0.0
6823,6.33,0.0
6824,6.4,0.0
6825,6.425,0.0
6826,6.49,0.0
6827,6.525,0.0
6828,6.58,0.0
6829,6.64,0.0
6830,6.67,0.0
6831,6.715,0.0
6832,6.77,0.0
6833,6.82,0.0
6834,6.85,0.0
6835,6.88,0.0
6836,6.93,0.0
6837,6.97,0.0
6838,7.0,0.0
6839,7.02,0.0
6840,7.045,0.0
6841,7.06,0.0
6842,7.07,0.0
6843,7.05,0.0
6844,7.02,0.0
6845,7.02,0.0
6846,6.97,0.0
6847,6.925,0.0
6848,6.865,0.0
6849,6.805,0.0
6850,6.785,0.0
6851,6.65,0.0
6852,6.575,0.0
6853,6.49,0.0
6854,6.41,0.0
6855,6.31,0.0
6856,6.21,0.0
6857,6.125,0.0
6858,6.035,0.0
6859,5.965,0.0
6860,5.87,0.0
6861,5.79,0.0
6862,5.73,0.0
6863,5.66,0.0
6864,5.585,0.0
6865,5.525,0.0
6866,5.485,0.0
6867,5.44,0.0
6868,5.38,0.0
6869,5.345,0.0
6870,5.325,0.0
6871,5.29,0.0
6872,5.245,0.0
6873,5.21,0.0
6874,5.205,0.0
6875,5.195,0.0
6876,5.155,0.0
6877,5.125,0.0
6878,5.135,0.0
6879,5.13,0.0
6880,5.115,0.0
6881,5.095,0.0
6882,5.09,0.0
6883,5.085,0.0
6884,5.085,0.0
6885,5.075,0.0
6886,5.065,0.0
6887,5.075,0.0
6888,5.075,0.0
6889,5.055,0.0
6890,5.065,0.0
6891,5.07,0.0
6892,5.07,0.0
6893,5.055,0.0
6894,5.05,0.0
6895,5.07,0.0
6896,5.065,0.0
6897,5.06,0.0
6898,5.05,0.0
6899,5.065,0.0
6900,5.07,0.0
6901,5.07,0.0
6902,5.055,0.0
6903,5.065,0.0
6904,5.08,0.0
6905,5.07,0.0
6906,5.07,0.0
6907,5.06,0.0
6908,5.08,0.0
6909,5.075,0.0
6910,5.05,0.0
6911,5.05,0.0
6912,5.075,0.0
6913,5.06,0.0
6914,5.055,0.0
6915,5.045,0.0
6916,5.055,0.0
6917,5.05,0.0
6918,5.035,0.0
6919,5.02,0.0
6920,5.03,0.0
6921,5.035,0.0
6922,5.01,0.0
6923,5.005,0.0
6924,5.015,0.0
6925,5.02,0.0
6926,5.0,0.0
6927,4.99,0.0
6928,4.995,0.0
6929,5.0,0.0
6930,4.995,0.0
6931,4.97,0.0
6932,4.975,0.0
6933,4.99,0.0
6934,4.985,0.0
6935,4.96,0.0
6936,4.96,0.0
6937,4.975,0.0
6938,4.96,0.0
6939,4.955,0.0
6940,4.955,0.0
6941,4.975,0.0
6942,4.965,0.0
6943,4.955,0.0
6944,4.935,0.0
6945,4.955,0.0
6946,4.95,0.0
6947,4.95,0.0
6948,4.94,0.0
6949,4.95,0.0
6950,4.955,0.0
6951,4.95,0.0
6952,4.94,0.0
6953,4.945,0.0
6954,4.96,0.0
6955,4.945,0.0
6956,4.935,0.0
6957,4.95,0.0
6958,4.96,0.0
6959,4.95,0.0
6960,4.94,0.0
6961,4.94,0.0
6962,4.96,0.0
6963,4.95,0.0
6964,4.95,0.0
6965,4.975,0.0
6966,5.01,0.0
6967,5.07,0.0
6968,5.285,0.0
6969,5.83,0.0
6970,6.0,0.0
6971,5.675,0.0
6972,5.465,0.0
6973,5.41,0.0
6974,5.375,0.0
6975,5.355,0.0
6976,5.185,0.0
6977,4.97,0.0
6978,4.685,0.0
6979,4.3,0.0
6980,3.9,0.0
6981,3.515,0.0
6982,3.165,0.0
6983,2.875,0.0
6984,2.635,0.0
6985,2.455,0.0
6986,2.305,0.0
6987,2.17,0.0
6988,2.075,0.0
6989,2.03,0.0
6990,2.0,0.0
6991,1.99,0.0
6992,1.98,0.0
6993,1.975,0.0
6994,1.97,0.0
6995,2.0,0.0
6996,2.055,0.0
6997,2.145,0.0
6998,2.345,0.0
6999,2.59,0.0
7000,2.67,0.0
7001,3.145,0.0
7002,3.47,0.0
7003,3.815,0.0
7004,4.12,0.0
7005,4.42,0.0
7006,4.725,0.0
7007,4.99,0.0
7008,5.23,0.0
7009,5.435,0.0
7010,5.56,0.0
7011,5.67,0.0
7012,5.755,0.0
7013,5.81,0.0
7014,5.845,0.0
7015,5.9,0.0
7016,5.95,0.0
7017,5.975,0.0
7018,6.0,0.0
7019,6.045,0.0
7020,6.095,0.0
7021,6.14,0.0
7022,6.165,0.0
7023,6.195,0.0
7024,6.245,0.0
7025,6.265,0.0
7026,6.32,0.0
7027,6.36,0.0
7028,6.405,0.0
7029,6.46,0.0
7030,6.5,0.0
7031,6.54,0.0
7032,6.59,0.0
7033,6.63,0.0
7034,6.67,0.0
7035,6.7,0.0
7036,6.745,0.0
7037,6.785,0.0
7038,6.815,0.0
7039,6.835,0.0
7040,6.85,0.0
7041,6.885,0.0
7042,6.9,0.0
7043,6.88,0.0
7044,6.87,0.0
7045,6.86,0.0
7046,6.85,0.0
7047,6.79,0.0
7048,6.74,0.0
7049,6.69,0.0
7050,6.68,0.0
7051,6.55,0.0
7052,6.465,0.0
7053,6.395,0.0
7054,6.315,0.0
7055,6.22,0.0
7056,6.135,0.0
7057,6.055,0.0
7058,5.975,0.0
7059,5.89,0.0
7060,5.795,0.0
7061,5.715,0.0
7062,5.655,0.0
7063,5.59,0.0
7064,5.525,0.0
7065,5.46,0.0
7066,5.42,0.0
7067,5.375,0.0
7068,5.335,0.0
7069,5.295,0.0
7070,5.285,0.0
7071,5.25,0.0
7072,5.215,0.0
7073,5.19,0.0
7074,5.19,0.0
7075,5.195,0.0
7076,5.17,0.0
7077,5.15,0.0
7078,5.135,0.0
7079,5.15,0.0
7080,5.135,0.0
7081,5.13,0.0
7082,5.15,0.0
7083,5.155,0.0
7084,5.14,0.0
7085,5.13,0.0
7086,5.14,0.0
7087,5.145,0.0
7088,5.15,0.0
7089,5.135,0.0
7090,5.135,0.0
7091,5.145,0.0
7092,5.155,0.0
7093,5.145,0.0
7094,5.145,0.0
7095,5.155,0.0
7096,5.16,0.0
7097,5.15,0.0
7098,5.14,0.0
7099,5.145,0.0
7100,5.15,0.0
7101,5.135,0.0
7102,5.125,0.0
7103,5.13,0.0
7104,5.125,0.0
7105,5.115,0.0
7106,5.105,0.0
7107,5.105,0.0
7108,5.105,0.0
7109,5.095,0.0
7110,5.08,0.0
7111,5.07,0.0
7112,5.08,0.0
7113,5.07,0.0
7114,5.06,0.0
7115,5.05,0.0
7116,5.06,0.0
7117,5.045,0.0
7118,5.035,0.0
7119,5.02,0.0
7120,5.03,0.0
7121,5.03,0.0
7122,5.01,0.0
7123,4.99,0.0
7124,5.0,0.0
7125,5.0,0.0
7126,4.995,0.0
7127,4.98,0.0
7128,4.99,0.0
7129,4.99,0.0
7130,4.99,0.0
7131,4.97,0.0
7132,4.975,0.0
7133,4.975,0.0
7134,4.97,0.0
7135,4.955,0.0
7136,4.955,0.0
7137,4.975,0.0
7138,4.955,0.0
7139,4.95,0.0
7140,4.945,0.0
7141,4.965,0.0
7142,4.96,0.0
7143,4.95,0.0
7144,4.94,0.0
7145,4.95,0.0
7146,4.945,0.0
7147,4.945,0.0
7148,4.94,0.0
7149,4.94,0.0
7150,4.95,0.0
7151,4.94,0.0
7152,4.935,0.0
7153,4.95,0.0
7154,4.95,0.0
7155,4.94,0.0
7156,4.94,0.0
7157,4.945,0.0
7158,4.95,0.0
7159,4.955,0.0
7160,4.94,0.0
7161,4.955,0.0
7162,4.995,0.0
7163,5.065,0.0
7164,5.36,0.0
7165,5.835,0.0
7166,5.815,0.0
7167,5.47,0.0
7168,5.36,0.0
7169,5.315,0.0
7170,5.265,0.0
7171,5.2,0.0
7172,5.06,0.0
7173,4.84,0.0
7174,4.525,0.0
7175,4.415,0.0
7176,3.77,0.0
7177,3.345,0.0
7178,3.03,0.0
7179,2.775,0.0
7180,2.565,0.0
7181,2.41,0.0
7182,2.28,0.0
7183,2.15,0.0
7184,2.065,0.0
7185,2.03,0.0
7186,2.0,0.0
7187,1.99,0.0
7188,1.975,0.0
7189,1.945,0.0
7190,1.945,0.0
7191,1.97,0.0
7192,1.99,0.0
7193,2.015,0.0
7194,2.085,0.0
7195,2.225,0.0
7196,2.41,0.0
7197,2.63,0.0
7198,2.915,0.0
7199,3.28,0.0
7200,3.395,0.0
7201,3.98,0.0
7202,4.33,0.0
7203,4.655,0.0
7204,4.905,0.0
7205,5.125,0.0
7206,5.32,0.0
7207,5.515,0.0
7208,5.67,0.0
7209,5.785,0.0
7210,5.835,0.0
7211,5.9,0.0
7212,5.96,0.0
7213,6.0,0.0
7214,6.03,0.0
7215,6.07,0.0
7216,6.115,0.0
7217,6.135,0.0
7218,6.155,0.0
7219,6.195,0.0
7220,6.23,0.0
7221,6.265,0.0
7222,6.285,0.0
7223,6.315,0.0
7224,6.365,0.0
7225,6.385,0.0
7226,6.425,0.0
7227,6.45,0.0
7228,6.5,0.0
7229,6.54,0.0
7230,6.58,0.0
7231,6.615,0.0
7232,6.65,0.0
7233,6.715,0.0
7234,6.745,0.0
7235,6.77,0.0
7236,6.82,0.0
7237,6.855,0.0
7238,6.885,0.0
7239,6.91,0.0
7240,6.925,0.0
7241,6.955,0.0
7242,6.945,0.0
7243,6.945,0.0
7244,6.935,0.0
7245,6.93,0.0
7246,6.905,0.0
7247,6.845,0.0
7248,6.805,0.0
7249,6.75,0.0
7250,6.73,0.0
7251,6.6,0.0
7252,6.495,0.0
7253,6.42,0.0
7254,6.34,0.0
7255,6.24,0.0
7256,6.135,0.0
7257,6.065,0.0
7258,5.975,0.0
7259,5.895,0.0
7260,5.795,0.0
7261,5.715,0.0
7262,5.655,0.0
7263,5.59,0.0
7264,5.525,0.0
7265,5.465,0.0
7266,5.43,0.0
7267,5.385,0.0
7268,5.325,0.0
7269,5.29,0.0
7270,5.28,0.0
7271,5.255,0.0
7272,5.22,0.0
7273,5.195,0.0
7274,5.205,0.0
7275,5.2,0.0
7276,5.175,0.0
7277,5.17,0.0
7278,5.17,0.0
7279,5.17,0.0
7280,5.16,0.0
7281,5.15,0.0
7282,5.155,0.0
7283,5.16,0.0
7284,5.16,0.0
7285,5.135,0.0
7286,5.14,0.0
7287,5.155,0.0
7288,5.15,0.0
7289,5.145,0.0
7290,5.15,0.0
7291,5.145,0.0
7292,5.145,0.0
7293,5.14,0.0
7294,5.125,0.0
7295,5.14,0.0
7296,5.145,0.0
7297,5.13,0.0
7298,5.125,0.0
7299,5.12,0.0
7300,5.12,0.0
7301,5.11,0.0
7302,5.095,0.0
7303,5.095,0.0
7304,5.11,0.0
7305,5.085,0.0
7306,5.08,0.0
7307,5.08,0.0
7308,5.075,0.0
7309,5.055,0.0
7310,5.045,0.0
7311,5.045,0.0
7312,5.05,0.0
7313,5.04,0.0
7314,5.02,0.0
7315,5.02,0.0
7316,5.02,0.0
7317,5.015,0.0
7318,4.99,0.0
7319,4.99,0.0
7320,5.0,0.0
7321,4.99,0.0
7322,4.975,0.0
7323,4.955,0.0
7324,4.975,0.0
7325,4.985,0.0
7326,4.975,0.0
7327,4.955,0.0
7328,4.955,0.0
7329,4.965,0.0
7330,4.955,0.0
7331,4.94,0.0
7332,4.945,0.0
7333,4.95,0.0
7334,4.95,0.0
7335,4.94,0.0
7336,4.935,0.0
7337,4.94,0.0
7338,4.95,0.0
7339,4.93,0.0
7340,4.93,0.0
7341,4.94,0.0
7342,4.94,0.0
7343,4.92,0.0
7344,4.92,0.0
7345,4.94,0.0
7346,4.94,0.0
7347,4.925,0.0
7348,4.91,0.0
7349,4.925,0.0
7350,4.935,0.0
7351,4.915,0.0
7352,4.905,0.0
7353,4.92,0.0
7354,4.93,0.0
7355,4.925,0.0
7356,4.91,0.0
7357,4.915,0.0
7358,4.94,0.0
7359,4.93,0.0
7360,4.945,0.0
7361,4.995,0.0
7362,5.215,0.0
7363,5.68,0.0
7364,5.85,0.0
7365,5.53,0.0
7366,5.35,0.0
7367,5.3,0.0
7368,5.2,0.0
7369,5.06,0.0
7370,4.885,0.0
7371,4.62,0.0
7372,4.295,0.0
7373,3.935,0.0
7374,3.64,0.0
7375,3.555,0.0
7376,3.12,0.0
7377,2.855,0.0
7378,2.59,0.0
7379,2.41,0.0
7380,2.265,0.0
7381,2.135,0.0
7382,2.045,0.0
7383,2.01,0.0
7384,1.985,0.0
7385,1.945,0.0
7386,1.94,0.0
7387,1.935,0.0
7388,1.945,0.0
7389,1.94,0.0
7390,1.97,0.0
7391,2.015,0.0
7392,2.095,0.0
7393,2.23,0.0
7394,2.42,0.0
7395,2.68,0.0
7396,2.975,0.0
7397,3.32,0.0
7398,3.675,0.0
7399,4.055,0.0
7400,4.17,0.0
7401,4.66,0.0
7402,4.91,0.0
7403,5.15,0.0
7404,5.38,0.0
7405,5.55,0.0
7406,5.67,0.0
7407,5.76,0.0
7408,5.815,0.0
7409,5.85,0.0
7410,5.87,0.0
7411,5.905,0.0
7412,5.95,0.0
7413,5.98,0.0
7414,6.005,0.0
7415,6.05,0.0
7416,6.105,0.0
7417,6.135,0.0
7418,6.145,0.0
7419,6.175,0.0
7420,6.205,0.0
7421,6.245,0.0
7422,6.26,0.0
7423,6.29,0.0
7424,6.33,0.0
7425,6.35,0.0
7426,6.4,0.0
7427,6.42,0.0
7428,6.465,0.0
7429,6.505,0.0
7430,6.515,0.0
7431,6.545,0.0
7432,6.595,0.0
7433,6.63,0.0
7434,6.645,0.0
7435,6.68,0.0
7436,6.72,0.0
7437,6.75,0.0
7438,6.77,0.0
7439,6.775,0.0
7440,6.795,0.0
7441,6.815,0.0
7442,6.82,0.0
7443,6.795,0.0
7444,6.79,0.0
7445,6.78,0.0
7446,6.75,0.0
7447,6.705,0.0
7448,6.645,0.0
7449,6.605,0.0
7450,6.585,0.0
7451,6.465,0.0
7452,6.37,0.0
7453,6.29,0.0
7454,6.21,0.0
7455,6.125,0.0
7456,6.03,0.0
7457,5.965,0.0
7458,5.88,0.0
7459,5.795,0.0
7460,5.71,0.0
7461,5.65,0.0
7462,5.585,0.0
7463,5.53,0.0
7464,5.46,0.0
7465,5.41,0.0
7466,5.37,0.0
7467,5.34,0.0
7468,5.295,0.0
7469,5.26,0.0
7470,5.245,0.0
7471,5.23,0.0
7472,5.2,0.0
7473,5.18,0.0
7474,5.18,0.0
7475,5.18,0.0
7476,5.155,0.0
7477,5.145,0.0
7478,5.15,0.0
7479,5.155,0.0
7480,5.15,0.0
7481,5.13,0.0
7482,5.13,0.0
7483,5.135,0.0
7484,5.13,0.0
7485,5.115,0.0
7486,5.13,0.0
7487,5.14,0.0
7488,5.13,0.0
7489,5.125,0.0
7490,5.115,0.0
7491,5.135,0.0
7492,5.14,0.0
7493,5.13,0.0
7494,5.125,0.0
7495,5.135,0.0
7496,5.135,0.0
7497,5.115,0.0
7498,5.1,0.0
7499,5.115,0.0
7500,5.12,0.0
7501,5.11,0.0
7502,5.095,0.0
7503,5.105,0.0
7504,5.105,0.0
7505,5.09,0.0
7506,5.08,0.0
7507,5.08,0.0
7508,5.08,0.0
7509,5.065,0.0
7510,5.05,0.0
7511,5.05,0.0
7512,5.065,0.0
7513,5.055,0.0
7514,5.03,0.0
7515,5.035,0.0
7516,5.025,0.0
7517,5.03,0.0
7518,5.02,0.0
7519,5.0,0.0
7520,5.01,0.0
7521,5.005,0.0
7522,5.005,0.0
7523,5.0,0.0
7524,5.0,0.0
7525,5.01,0.0
7526,4.985,0.0
7527,4.99,0.0
7528,4.98,0.0
7529,4.985,0.0
7530,4.98,0.0
7531,4.97,0.0
7532,4.98,0.0
7533,4.98,0.0
7534,4.97,0.0
7535,4.96,0.0
7536,4.955,0.0
7537,4.975,0.0
7538,4.975,0.0
7539,4.95,0.0
7540,4.955,0.0
7541,4.97,0.0
7542,4.965,0.0
7543,4.955,0.0
7544,4.95,0.0
7545,4.965,0.0
7546,4.95,0.0
7547,4.95,0.0
7548,4.94,0.0
7549,4.96,0.0
7550,4.965,0.0
7551,4.955,0.0
7552,4.955,0.0
7553,4.965,0.0
7554,4.965,0.0
7555,4.96,0.0
7556,4.945,0.0
7557,4.95,0.0
7558,4.965,0.0
7559,4.955,0.0
7560,4.945,0.0
7561,4.95,0.0
7562,4.965,0.0
7563,4.97,0.0
7564,4.96,0.0
7565,4.965,0.0
7566,5.005,0.0
7567,5.035,0.0
7568,5.15,0.0
7569,5.54,0.0
7570,5.98,0.0
7571,5.87,0.0
7572,5.55,0.0
7573,5.415,0.0
7574,5.39,0.0
7575,5.37,0.0
7576,5.27,0.0
7577,5.175,0.0
7578,5.025,0.0
7579,4.8,0.0
7580,4.495,0.0
7581,4.165,0.0
7582,3.835,0.0
7583,3.495,0.0
7584,3.175,0.0
7585,2.91,0.0
7586,2.705,0.0
7587,2.565,0.0
7588,2.42,0.0
7589,2.265,0.0
7590,2.15,0.0
7591,2.105,0.0
7592,2.055,0.0
7593,2.015,0.0
7594,1.995,0.0
7595,1.99,0.0
7596,1.99,0.0
7597,1.98,0.0
7598,1.985,0.0
7599,2.015,0.0
7600,2.025,0.0
7601,2.11,0.0
7602,2.215,0.0
7603,2.39,0.0
7604,2.595,0.0
7605,2.83,0.0
7606,3.105,0.0
7607,3.455,0.0
7608,3.795,0.0
7609,4.11,0.0
7610,4.4,0.0
7611,4.675,0.0
7612,4.925,0.0
7613,5.13,0.0
7614,5.31,0.0
7615,5.49,0.0
7616,5.655,0.0
7617,5.75,0.0
7618,5.805,0.0
7619,5.855,0.0
7620,5.905,0.0
7621,5.93,0.0
7622,5.945,0.0
7623,5.98,0.0
7624,6.035,0.0
7625,6.055,0.0
7626,6.12,0.0
7627,6.15,0.0
7628,6.185,0.0
7629,6.215,0.0
7630,6.23,0.0
7631,6.25,0.0
7632,6.29,0.0
7633,6.33,0.0
7634,6.36,0.0
7635,6.375,0.0
7636,6.42,0.0
7637,6.455,0.0
7638,6.49,0.0
7639,6.505,0.0
7640,6.54,0.0
7641,6.585,0.0
7642,6.615,0.0
7643,6.635,0.0
7644,6.665,0.0
7645,6.72,0.0
7646,6.74,0.0
7647,6.765,0.0
7648,6.79,0.0
7649,6.825,0.0
7650,6.84,0.0
7651,6.87,0.0
7652,6.87,0.0
7653,6.9,0.0
7654,6.9,0.0
7655,6.89,0.0
7656,6.87,0.0
7657,6.855,0.0
7658,6.835,0.0
7659,6.785,0.0
7660,6.73,0.0
7661,6.68,0.0
7662,6.62,0.0
7663,6.555,0.0
7664,6.45,0.0
7665,6.385,0.0
7666,6.32,0.0
7667,6.215,0.0
7668,6.115,0.0
7669,6.035,0.0
7670,5.965,0.0
7671,5.885,0.0
7672,5.79,0.0
7673,5.73,0.0
7674,5.675,0.0
7675,5.655,0.0
7676,5.55,0.0
7677,5.49,0.0
7678,5.465,0.0
7679,5.435,0.0
7680,5.385,0.0
7681,5.345,0.0
7682,5.325,0.0
7683,5.32,0.0
7684,5.295,0.0
7685,5.265,0.0
7686,5.25,0.0
7687,5.25,0.0
7688,5.235,0.0
7689,5.22,0.0
7690,5.22,0.0
7691,5.235,0.0
7692,5.215,0.0
7693,5.205,0.0
7694,5.21,0.0
7695,5.22,0.0
7696,5.215,0.0
7697,5.205,0.0
7698,5.195,0.0
7699,5.22,0.0
7700,5.23,0.0
7701,5.22,0.0
7702,5.21,0.0
7703,5.215,0.0
7704,5.23,0.0
7705,5.225,0.0
7706,5.21,0.0
7707,5.215,0.0
7708,5.23,0.0
7709,5.225,0.0
7710,5.21,0.0
7711,5.205,0.0
7712,5.22,0.0
7713,5.21,0.0
7714,5.2,0.0
7715,5.2,0.0
7716,5.215,0.0
7717,5.2,0.0
7718,5.18,0.0
7719,5.17,0.0
7720,5.18,0.0
7721,5.185,0.0
7722,5.16,0.0
7723,5.14,0.0
7724,5.145,0.0
7725,5.155,0.0
7726,5.135,0.0
7727,5.125,0.0
7728,5.12,0.0
7729,5.12,0.0
7730,5.105,0.0
7731,5.085,0.0
7732,5.095,0.0
7733,5.095,0.0
7734,5.085,0.0
7735,5.07,0.0
7736,5.06,0.0
7737,5.075,0.0
7738,5.06,0.0
7739,5.045,0.0
7740,5.055,0.0
7741,5.065,0.0
7742,5.05,0.0
7743,5.035,0.0
7744,5.035,0.0
7745,5.04,0.0
7746,5.045,0.0
7747,5.025,0.0
7748,5.025,0.0
7749,5.03,0.0
7750,5.035,0.0
7751,5.02,0.0
7752,5.01,0.0
7753,5.01,0.0
7754,5.02,0.0
7755,5.01,0.0
7756,5.0,0.0
7757,5.0,0.0
7758,5.015,0.0
7759,5.01,0.0
7760,4.99,0.0
7761,4.995,0.0
7762,5.0,0.0
7763,5.005,0.0
7764,4.99,0.0
7765,5.005,0.0
7766,5.02,0.0
7767,5.0,0.0
7768,4.99,0.0
7769,4.975,0.0
7770,5.005,0.0
7771,5.005,0.0
7772,4.995,0.0
7773,4.99,0.0
7774,5.0,0.0
7775,5.005,0.0
7776,5.005,0.0
7777,5.015,0.0
7778,5.045,0.0
7779,5.135,0.0
7780,5.38,0.0
7781,5.845,0.0
7782,6.01,0.0
7783,5.675,0.0
7784,5.47,0.0
7785,5.41,0.0
7786,5.36,0.0
7787,5.32,0.0
7788,5.225,0.0
7789,5.075,0.0
7790,4.85,0.0
7791,4.58,0.0
7792,4.23,0.0
7793,3.875,0.0
7794,3.51,0.0
7795,3.215,0.0
7796,2.955,0.0
7797,2.72,0.0
7798,2.565,0.0
7799,2.45,0.0
7800,2.41,0.0
7801,2.175,0.0
7802,2.095,0.0
7803,2.065,0.0
7804,2.035,0.0
7805,1.985,0.0
7806,1.97,0.0
7807,1.97,0.0
7808,1.98,0.0
7809,1.97,0.0
7810,1.97,0.0
7811,2.005,0.0
7812,2.075,0.0
7813,2.16,0.0
7814,2.285,0.0
7815,2.45,0.0
7816,2.655,0.0
7817,2.905,0.0
7818,3.19,0.0
7819,3.545,0.0
7820,3.885,0.0
7821,4.235,0.0
7822,4.535,0.0
7823,4.8,0.0
7824,5.04,0.0
7825,5.11,0.0
7826,5.44,0.0
7827,5.615,0.0
7828,5.735,0.0
7829,5.825,0.0
7830,5.89,0.0
7831,5.955,0.0
7832,6.015,0.0
7833,6.065,0.0
7834,6.09,0.0
7835,6.115,0.0
7836,6.15,0.0
7837,6.195,0.0
7838,6.215,0.0
7839,6.23,0.0
7840,6.265,0.0
7841,6.31,0.0
7842,6.34,0.0
7843,6.35,0.0
7844,6.38,0.0
7845,6.425,0.0
7846,6.46,0.0
7847,6.485,0.0
7848,6.525,0.0
7849,6.56,0.0
7850,6.58,0.0
7851,6.635,0.0
7852,6.675,0.0
7853,6.72,0.0
7854,6.76,0.0
7855,6.795,0.0
7856,6.83,0.0
7857,6.885,0.0
7858,6.915,0.0
7859,6.945,0.0
7860,6.96,0.0
7861,7.0,0.0
7862,7.025,0.0
7863,7.03,0.0
7864,7.01,0.0
7865,7.015,0.0
7866,7.025,0.0
7867,6.985,0.0
7868,6.95,0.0
7869,6.9,0.0
7870,6.87,0.0
7871,6.795,0.0
7872,6.715,0.0
7873,6.635,0.0
7874,6.57,0.0
7875,6.55,0.0
7876,6.38,0.0
7877,6.28,0.0
7878,6.2,0.0
7879,6.11,0.0
7880,6.01,0.0
7881,5.915,0.0
7882,5.855,0.0
7883,5.77,0.0
7884,5.7,0.0
7885,5.625,0.0
7886,5.57,0.0
7887,5.525,0.0
7888,5.465,0.0
7889,5.41,0.0
7890,5.375,0.0
7891,5.355,0.0
7892,5.32,0.0
7893,5.28,0.0
7894,5.24,0.0
7895,5.25,0.0
7896,5.225,0.0
7897,5.205,0.0
7898,5.18,0.0
7899,5.185,0.0
7900,5.19,0.0
7901,5.17,0.0
7902,5.155,0.0
7903,5.165,0.0
7904,5.165,0.0
7905,5.155,0.0
7906,5.145,0.0
7907,5.15,0.0
7908,5.16,0.0
7909,5.15,0.0
7910,5.15,0.0
7911,5.14,0.0
7912,5.15,0.0
7913,5.145,0.0
7914,5.135,0.0
7915,5.14,0.0
7916,5.155,0.0
7917,5.155,0.0
7918,5.14,0.0
7919,5.125,0.0
7920,5.145,0.0
7921,5.145,0.0
7922,5.135,0.0
7923,5.135,0.0
7924,5.135,0.0
7925,5.14,0.0
7926,5.125,0.0
7927,5.11,0.0
7928,5.115,0.0
7929,5.115,0.0
7930,5.105,0.0
7931,5.085,0.0
7932,5.095,0.0
7933,5.1,0.0
7934,5.095,0.0
7935,5.07,0.0
7936,5.06,0.0
7937,5.065,0.0
7938,5.055,0.0
7939,5.04,0.0
7940,5.035,0.0
7941,5.045,0.0
7942,5.03,0.0
7943,5.03,0.0
7944,5.015,0.0
7945,5.025,0.0
7946,5.02,0.0
7947,5.005,0.0
7948,4.995,0.0
7949,4.995,0.0
7950,5.0,0.0
7951,4.98,0.0
7952,4.97,0.0
7953,4.995,0.0
7954,4.99,0.0
7955,4.98,0.0
7956,4.975,0.0
7957,4.98,0.0
7958,4.975,0.0
7959,4.955,0.0
7960,4.945,0.0
7961,4.95,0.0
7962,4.965,0.0
7963,4.955,0.0
7964,4.945,0.0
7965,4.95,0.0
7966,4.96,0.0
7967,4.96,0.0
7968,4.95,0.0
7969,4.935,0.0
7970,4.955,0.0
7971,4.96,0.0
7972,4.94,0.0
7973,4.925,0.0
7974,4.94,0.0
7975,4.945,0.0
7976,4.93,0.0
7977,4.93,0.0
7978,4.935,0.0
7979,4.945,0.0
7980,4.94,0.0
7981,4.93,0.0
7982,4.935,0.0
7983,4.94,0.0
7984,4.935,0.0
7985,4.93,0.0
7986,4.935,0.0
7987,4.945,0.0
7988,4.955,0.0
7989,4.95,0.0
7990,4.99,0.0
7991,5.11,0.0
7992,5.51,0.0
7993,5.93,0.0
7994,5.765,0.0
7995,5.48,0.0
7996,5.365,0.0
7997,5.3,0.0
7998,5.23,0.0
7999,5.16,0.0
8000,5.13,0.0
8001,4.835,0.0
8002,4.555,0.0
8003,4.23,0.0
8004,3.885,0.0
8005,3.505,0.0
8006,3.125,0.0
8007,2.845,0.0
8008,2.64,0.0
8009,2.465,0.0
8010,2.34,0.0
8011,2.2,0.0
8012,2.09,0.0
8013,2.0,0.0
8014,1.965,0.0
8015,1.935,0.0
8016,1.93,0.0
8017,1.915,0.0
8018,1.89,0.0
8019,1.89,0.0
8020,1.91,0.0
8021,1.925,0.0
8022,1.95,0.0
8023,2.005,0.0
8024,2.135,0.0
8025,2.19,0.0
8026,2.485,0.0
8027,2.735,0.0
8028,3.05,0.0
8029,3.38,0.0
8030,3.69,0.0
8031,3.985,0.0
8032,4.3,0.0
8033,4.635,0.0
8034,4.9,0.0
8035,5.13,0.0
8036,5.35,0.0
8037,5.535,0.0
8038,5.67,0.0
8039,5.74,0.0
8040,5.815,0.0
8041,5.875,0.0
8042,5.915,0.0
8043,5.945,0.0
8044,5.985,0.0
8045,6.035,0.0
8046,6.06,0.0
8047,6.08,0.0
8048,6.105,0.0
8049,6.15,0.0
8050,6.165,0.0
8051,6.195,0.0
8052,6.22,0.0
8053,6.265,0.0
8054,6.3,0.0
8055,6.32,0.0
8056,6.365,0.0
8057,6.405,0.0
8058,6.455,0.0
8059,6.49,0.0
8060,6.525,0.0
8061,6.57,0.0
8062,6.615,0.0
8063,6.655,0.0
8064,6.695,0.0
8065,6.735,0.0
8066,6.775,0.0
8067,6.805,0.0
8068,6.835,0.0
8069,6.86,0.0
8070,6.895,0.0
8071,6.905,0.0
8072,6.91,0.0
8073,6.92,0.0
8074,6.925,0.0
8075,6.93,0.0
8076,6.895,0.0
8077,6.85,0.0
8078,6.825,0.0
8079,6.78,0.0
8080,6.7,0.0
8081,6.625,0.0
8082,6.555,0.0
8083,6.475,0.0
8084,6.38,0.0
8085,6.285,0.0
8086,6.2,0.0
8087,6.13,0.0
8088,6.035,0.0
8089,5.94,0.0
8090,5.865,0.0
8091,5.795,0.0
8092,5.715,0.0
8093,5.635,0.0
8094,5.565,0.0
8095,5.525,0.0
8096,5.475,0.0
8097,5.415,0.0
8098,5.37,0.0
8099,5.345,0.0
8100,5.34,0.0
8101,5.275,0.0
8102,5.245,0.0
8103,5.23,0.0
8104,5.215,0.0
8105,5.185,0.0
8106,5.175,0.0
8107,5.165,0.0
8108,5.155,0.0
8109,5.15,0.0
8110,5.14,0.0
8111,5.135,0.0
8112,5.14,0.0
8113,5.125,0.0
8114,5.11,0.0
8115,5.12,0.0
8116,5.125,0.0
8117,5.115,0.0
8118,5.1,0.0
8119,5.11,0.0
8120,5.115,0.0
8121,5.115,0.0
8122,5.105,0.0
8123,5.1,0.0
8124,5.12,0.0
8125,5.13,0.0
8126,5.105,0.0
8127,5.095,0.0
8128,5.11,0.0
8129,5.11,0.0
8130,5.095,0.0
8131,5.09,0.0
8132,5.09,0.0
8133,5.105,0.0
8134,5.1,0.0
8135,5.09,0.0
8136,5.085,0.0
8137,5.1,0.0
8138,5.08,0.0
8139,5.075,0.0
8140,5.07,0.0
8141,5.08,0.0
8142,5.065,0.0
8143,5.055,0.0
8144,5.03,0.0
8145,5.05,0.0
8146,5.05,0.0
8147,5.03,0.0
8148,5.025,0.0
8149,5.035,0.0
8150,5.035,0.0
8151,5.015,0.0
8152,5.0,0.0
8153,5.005,0.0
8154,5.005,0.0
8155,4.99,0.0
8156,4.98,0.0
8157,4.975,0.0
8158,4.98,0.0
8159,4.975,0.0
8160,4.955,0.0
8161,4.95,0.0
8162,4.98,0.0
8163,4.96,0.0
8164,4.935,0.0
8165,4.945,0.0
8166,4.96,0.0
8167,4.955,0.0
8168,4.935,0.0
8169,4.935,0.0
8170,4.945,0.0
8171,4.935,0.0
8172,4.925,0.0
8173,4.92,0.0
8174,4.935,0.0
8175,4.945,0.0
8176,4.93,0.0
8177,4.92,0.0
8178,4.93,0.0
8179,4.94,0.0
8180,4.92,0.0
8181,4.915,0.0
8182,4.915,0.0
8183,4.93,0.0
8184,4.915,0.0
8185,4.91,0.0
8186,4.92,0.0
8187,4.93,0.0
8188,4.925,0.0
8189,4.905,0.0
8190,4.915,0.0
8191,4.92,0.0
8192,4.91,0.0
8193,4.9,0.0
8194,4.905,0.0
8195,4.91,0.0
8196,4.915,0.0
8197,4.91,0.0
8198,4.915,0.0
8199,4.92,0.0
8200,4.925,0.0
8201,4.93,0.0
8202,4.945,0.0
8203,4.99,0.0
8204,5.11,0.0
8205,5.405,0.0
8206,5.775,0.0
8207,5.735,0.0
8208,5.495,0.0
8209,5.385,0.0
8210,5.34,0.0
8211,5.295,0.0
8212,5.255,0.0
8213,5.165,0.0
8214,5.02,0.0
8215,4.79,0.0
8216,4.515,0.0
8217,4.185,0.0
8218,3.845,0.0
8219,3.51,0.0
8220,3.225,0.0
8221,2.97,0.0
8222,2.745,0.0
8223,2.57,0.0
8224,2.47,0.0
8225,2.43,0.0
8226,2.165,0.0
8227,2.045,0.0
8228,2.02,0.0
8229,1.98,0.0
8230,1.945,0.0
8231,1.91,0.0
8232,1.905,0.0
8233,1.905,0.0
8234,1.895,0.0
8235,1.895,0.0
8236,1.92,0.0
8237,1.97,0.0
8238,2.025,0.0
8239,2.125,0.0
8240,2.28,0.0
8241,2.455,0.0
8242,2.66,0.0
8243,2.91,0.0
8244,3.245,0.0
8245,3.585,0.0
8246,3.895,0.0
8247,4.21,0.0
8248,4.5,0.0
8249,4.76,0.0
8250,4.84,0.0
8251,5.18,0.0
8252,5.365,0.0
8253,5.535,0.0
8254,5.635,0.0
8255,5.705,0.0
8256,5.76,0.0
8257,5.805,0.0
8258,5.87,0.0
8259,5.89,0.0
8260,5.905,0.0
8261,5.965,0.0
8262,6.0,0.0
8263,6.005,0.0
8264,6.03,0.0
8265,6.06,0.0
8266,6.105,0.0
8267,6.115,0.0
8268,6.14,0.0
8269,6.165,0.0
8270,6.21,0.0
8271,6.235,0.0
8272,6.26,0.0
8273,6.3,0.0
8274,6.345,0.0
8275,6.365,0.0
8276,6.41,0.0
8277,6.445,0.0
8278,6.505,0.0
8279,6.54,0.0
8280,6.575,0.0
8281,6.61,0.0
8282,6.665,0.0
8283,6.715,0.0
8284,6.735,0.0
8285,6.77,0.0
8286,6.805,0.0
8287,6.84,0.0
8288,6.855,0.0
8289,6.865,0.0
8290,6.875,0.0
8291,6.89,0.0
8292,6.88,0.0
8293,6.86,0.0
8294,6.84,0.0
8295,6.81,0.0
8296,6.77,0.0
8297,6.705,0.0
8298,6.635,0.0
8299,6.575,0.0
8300,6.55,0.0
8301,6.43,0.0
8302,6.345,0.0
8303,6.275,0.0
8304,6.195,0.0
8305,6.11,0.0
8306,6.015,0.0
8307,5.955,0.0
8308,5.885,0.0
8309,5.79,0.0
8310,5.71,0.0
8311,5.65,0.0
8312,5.6,0.0
8313,5.525,0.0
8314,5.46,0.0
8315,5.415,0.0
8316,5.395,0.0
8317,5.34,0.0
8318,5.29,0.0
8319,5.26,0.0
8320,5.25,0.0
8321,5.215,0.0
8322,5.195,0.0
8323,5.175,0.0
8324,5.185,0.0
8325,5.19,0.0
8326,5.16,0.0
8327,5.15,0.0
8328,5.15,0.0
8329,5.155,0.0
8330,5.145,0.0
8331,5.13,0.0
8332,5.13,0.0
8333,5.14,0.0
8334,5.14,0.0
8335,5.12,0.0
8336,5.13,0.0
8337,5.14,0.0
8338,5.14,0.0
8339,5.13,0.0
8340,5.135,0.0
8341,5.14,0.0
8342,5.14,0.0
8343,5.13,0.0
8344,5.125,0.0
8345,5.14,0.0
8346,5.13,0.0
8347,5.125,0.0
8348,5.13,0.0
8349,5.135,0.0
8350,5.14,0.0
8351,5.11,0.0
8352,5.12,0.0
8353,5.115,0.0
8354,5.115,0.0
8355,5.115,0.0
8356,5.095,0.0
8357,5.09,0.0
8358,5.09,0.0
8359,5.075,0.0
8360,5.06,0.0
8361,5.07,0.0
8362,5.07,0.0
8363,5.055,0.0
8364,5.045,0.0
8365,5.04,0.0
8366,5.04,0.0
8367,5.02,0.0
8368,5.02,0.0
8369,5.015,0.0
8370,5.015,0.0
8371,5.0,0.0
8372,4.985,0.0
8373,4.985,0.0
8374,4.99,0.0
8375,5.0,0.0
8376,4.975,0.0
8377,4.96,0.0
8378,4.965,0.0
8379,4.97,0.0
8380,4.955,0.0
8381,4.955,0.0
8382,4.965,0.0
8383,4.96,0.0
